O2Hb_1,HHb_1,TOI_1,nTHI_1,O2Hb_2,HHb_2,TOI_2,nTHI_2,O2Hb_3,HHb_3,TOI_3,nTHI_3,O2Hb_4,HHb_4,TOI_4,nTHI_4,Comment
-2.07,-6.06,65.6,0.939,-4.98,-4.49,63.9,0.849,-3.17,-2.43,64.3,0.875,-5.33,-4.08,71,0.774,
-1.74,-5.74,65.6,0.945,-4.4,-4.05,64,0.865,-3.13,-2.42,64.4,0.88,-5.06,-3.83,71,0.784,
-1.49,-5.46,65.3,0.952,-4.1,-3.86,64.1,0.874,-3.08,-2.41,64.4,0.884,-4.82,-3.66,71.2,0.786,
-1.48,-5.53,65.6,0.953,-4.35,-4,64,0.867,-3.11,-2.42,64.4,0.881,-4.85,-3.65,71.2,0.778,
-1.66,-5.59,65.6,0.948,-4.53,-4.1,63.9,0.86,-3.16,-2.43,64.3,0.877,-4.88,-3.69,71.3,0.773,
-1.76,-5.68,65.6,0.946,-4.59,-4.16,64,0.859,-3.17,-2.43,64.3,0.877,-4.89,-3.67,71.1,0.773,
-2.08,-5.8,65.2,0.946,-4.74,-4.28,63.9,0.855,-3.19,-2.44,64.3,0.876,-4.88,-3.68,71.3,0.772,
-2.3,-6,65.2,0.946,-4.78,-4.33,63.9,0.854,-3.23,-2.45,64.3,0.875,-4.91,-3.68,71.3,0.773,
-2.41,-6.13,65.3,0.943,-4.72,-4.29,63.8,0.856,-3.24,-2.48,64.3,0.874,-4.94,-3.71,71.3,0.777,
-2.5,-6.12,65.1,0.94,-4.73,-4.32,63.9,0.858,-3.28,-2.5,64.3,0.873,-4.99,-3.76,71.5,0.78,
-2.5,-6.2,65.4,0.943,-4.49,-4.13,64,0.863,-3.23,-2.46,64.3,0.876,-4.92,-3.65,71.4,0.781,
-2.48,-5.97,64.8,0.946,-4.16,-3.87,64,0.874,-3.21,-2.47,64.3,0.882,-4.77,-3.54,71.6,0.782,
-2.31,-5.73,64.5,0.951,-3.94,-3.71,64.1,0.885,-3.25,-2.53,64.3,0.886,-4.72,-3.48,71.5,0.787,
-2.52,-5.71,64,0.949,-4.08,-3.81,64.2,0.879,-3.29,-2.54,64.3,0.883,-4.74,-3.5,71.5,0.786,
-2.59,-5.87,64.5,0.947,-4.28,-3.93,64,0.869,-3.27,-2.51,64.3,0.883,-4.73,-3.46,71.5,0.786,
-2.64,-5.85,64.2,0.947,-4.23,-3.91,64,0.871,-3.25,-2.52,64.4,0.882,-4.7,-3.46,71.6,0.79,
-2.67,-5.91,64.3,0.948,-4.21,-3.88,64,0.874,-3.27,-2.49,64.3,0.883,-4.67,-3.41,71.5,0.794,
-2.79,-5.92,64.2,0.946,-4.24,-3.91,64,0.874,-3.28,-2.5,64.3,0.883,-4.66,-3.39,71.7,0.794,
-2.79,-5.92,64.2,0.947,-4.23,-3.91,64,0.875,-3.27,-2.49,64.3,0.884,-4.64,-3.39,71.8,0.794,
-2.79,-5.9,64.2,0.948,-4.26,-3.91,64,0.873,-3.27,-2.48,64.2,0.884,-4.63,-3.37,71.7,0.794,
-2.77,-5.81,64.1,0.952,-4.25,-3.91,64.1,0.874,-3.27,-2.45,64.1,0.885,-4.62,-3.35,71.7,0.794,
-2.71,-5.88,64.5,0.949,-4.27,-3.91,64,0.873,-3.24,-2.46,64.3,0.886,-4.61,-3.34,71.6,0.795,
-2.77,-5.78,64,0.952,-4.25,-3.89,64,0.874,-3.26,-2.44,64.2,0.886,-4.6,-3.32,71.8,0.796,
-2.78,-5.8,64.1,0.95,-4.27,-3.91,64.1,0.874,-3.27,-2.44,64.1,0.886,-4.6,-3.32,71.8,0.798,
-2.66,-5.86,64.6,0.951,-4.22,-3.89,64.2,0.875,-3.23,-2.44,64.3,0.887,-4.59,-3.32,71.8,0.797,
-2.76,-5.8,64.1,0.95,-4.21,-3.86,64.1,0.877,-3.24,-2.43,64.3,0.888,-4.57,-3.3,71.8,0.799,
-2.67,-5.89,64.7,0.951,-4.18,-3.83,64,0.879,-3.23,-2.43,64.3,0.888,-4.54,-3.26,71.8,0.799,
-2.65,-5.84,64.6,0.952,-4.13,-3.81,64.1,0.88,-3.17,-2.41,64.4,0.891,-4.49,-3.23,71.8,0.799,
-2.67,-5.8,64.6,0.953,-4.12,-3.76,64,0.882,-3.18,-2.38,64.3,0.891,-4.47,-3.2,72,0.799,
-2.65,-5.71,64.4,0.957,-4.15,-3.77,64.1,0.883,-3.18,-2.38,64.4,0.891,-4.5,-3.2,71.8,0.796,
-2.53,-5.75,64.8,0.958,-4.16,-3.77,64,0.882,-3.15,-2.37,64.4,0.892,-4.49,-3.21,71.8,0.794,
-2.4,-5.85,65.6,0.96,-4.19,-3.75,63.8,0.882,-3.17,-2.35,64.3,0.89,-4.51,-3.21,71.7,0.793,
-2.31,-5.88,66,0.961,-4.16,-3.74,64,0.882,-3.15,-2.34,64.3,0.891,-4.48,-3.19,71.8,0.794,
-2.21,-5.91,66.3,0.962,-4.12,-3.7,64,0.883,-3.11,-2.32,64.4,0.893,-4.44,-3.16,71.8,0.795,
-2.18,-5.93,66.5,0.96,-4.14,-3.69,64,0.882,-3.11,-2.3,64.3,0.892,-4.44,-3.14,71.7,0.796,
-2.25,-5.83,66.1,0.961,-4.17,-3.68,63.9,0.882,-3.12,-2.29,64.3,0.892,-4.42,-3.12,71.8,0.795,
-2.21,-5.75,66,0.967,-4.17,-3.68,64,0.882,-3.11,-2.28,64.3,0.892,-4.42,-3.11,71.8,0.796,
-2.18,-5.88,66.6,0.962,-4.19,-3.69,64,0.88,-3.13,-2.27,64.2,0.891,-4.4,-3.11,71.8,0.796,
-2.23,-5.79,66.2,0.964,-4.21,-3.68,64,0.881,-3.13,-2.28,64.3,0.89,-4.42,-3.09,71.8,0.795,
-2.23,-5.78,66.2,0.963,-4.22,-3.66,63.8,0.88,-3.11,-2.27,64.3,0.891,-4.38,-3.07,71.8,0.796,
-2.26,-5.77,66.1,0.959,-4.23,-3.65,63.8,0.881,-3.13,-2.27,64.3,0.889,-4.4,-3.08,71.8,0.794,
-2.34,-5.61,65.5,0.962,-4.19,-3.63,64,0.882,-3.13,-2.26,64.3,0.891,-4.4,-3.07,71.9,0.795,
-2.32,-5.61,65.6,0.963,-4.22,-3.64,63.9,0.881,-3.13,-2.25,64.2,0.891,-4.4,-3.06,71.8,0.792,
-2.35,-5.58,65.5,0.962,-4.24,-3.62,63.9,0.881,-3.14,-2.24,64.2,0.891,-4.4,-3.05,71.8,0.793,
-2.4,-5.5,65.2,0.964,-4.28,-3.64,63.9,0.88,-3.15,-2.23,64.2,0.89,-4.42,-3.06,71.8,0.793,
-2.41,-5.43,65,0.966,-4.28,-3.62,63.8,0.881,-3.13,-2.22,64.2,0.891,-4.42,-3.06,71.8,0.793,
-2.47,-5.42,64.9,0.964,-4.29,-3.61,63.8,0.88,-3.16,-2.21,64.1,0.89,-4.41,-3.06,71.9,0.794,
-2.43,-5.48,65.2,0.961,-4.28,-3.59,63.8,0.88,-3.14,-2.2,64.2,0.89,-4.41,-3.03,71.8,0.793,
-2.4,-5.45,65.2,0.962,-4.28,-3.57,63.7,0.881,-3.12,-2.18,64.2,0.891,-4.38,-3.04,72,0.794,
-2.52,-5.34,64.7,0.963,-4.28,-3.57,64,0.881,-3.14,-2.17,64.2,0.89,-4.38,-3.01,71.9,0.794,
-2.42,-5.43,65.2,0.961,-4.28,-3.54,63.8,0.881,-3.12,-2.15,64.1,0.892,-4.36,-3,71.9,0.795,
-2.49,-5.38,64.9,0.959,-4.27,-3.54,63.8,0.881,-3.13,-2.14,64,0.891,-4.36,-2.98,71.8,0.795,
-2.59,-5.36,64.6,0.956,-4.31,-3.53,63.8,0.879,-3.13,-2.14,64.1,0.892,-4.34,-2.98,72,0.796,
-2.5,-5.38,65,0.959,-4.29,-3.51,63.8,0.882,-3.12,-2.12,64,0.893,-4.33,-2.96,71.9,0.795,
-2.56,-5.33,64.6,0.957,-4.31,-3.51,63.7,0.881,-3.13,-2.12,64.1,0.891,-4.33,-2.96,72,0.794,
-2.59,-5.25,64.4,0.96,-4.32,-3.5,63.7,0.881,-3.14,-2.12,64,0.891,-4.34,-2.96,72,0.794,
-2.56,-5.32,64.7,0.956,-4.31,-3.48,63.7,0.882,-3.1,-2.1,64.2,0.893,-4.3,-2.95,72.1,0.796,
-2.65,-5.22,64.2,0.956,-4.31,-3.47,63.8,0.882,-3.12,-2.09,64,0.892,-4.32,-2.95,72,0.793,
-2.63,-5.14,64.2,0.961,-4.33,-3.45,63.7,0.882,-3.12,-2.08,64.1,0.892,-4.32,-2.94,72.1,0.793,
-2.62,-5.1,64,0.961,-4.31,-3.43,63.8,0.883,-3.08,-2.06,64.1,0.894,-4.3,-2.93,72,0.793,
-2.57,-5.04,64.1,0.965,-4.3,-3.4,63.7,0.883,-3.09,-2.04,64,0.894,-4.32,-2.91,71.8,0.794,
-2.63,-4.98,63.8,0.964,-4.24,-3.34,63.7,0.886,-3.08,-2.02,64,0.895,-4.27,-2.9,72.1,0.795,
-2.64,-5,63.9,0.963,-4.28,-3.36,63.7,0.883,-3.06,-2,64,0.897,-4.25,-2.87,72,0.795,
-2.67,-4.92,63.6,0.964,-4.28,-3.33,63.6,0.884,-3.06,-2,64,0.895,-4.23,-2.88,72.2,0.796,
-2.68,-4.9,63.6,0.965,-4.3,-3.33,63.6,0.884,-3.07,-2,64,0.894,-4.25,-2.87,72.1,0.796,
-2.59,-4.97,64.1,0.964,-4.28,-3.31,63.6,0.884,-3.03,-1.98,64.1,0.897,-4.21,-2.86,72.2,0.797,
-2.61,-4.92,63.9,0.966,-4.29,-3.29,63.5,0.884,-3.03,-1.97,64,0.897,-4.21,-2.84,72.1,0.798,
-2.63,-4.92,63.9,0.964,-4.26,-3.27,63.6,0.885,-3.02,-1.95,64,0.897,-4.17,-2.83,72.3,0.798,
-2.65,-4.93,63.9,0.962,-4.28,-3.27,63.6,0.883,-3,-1.94,64,0.898,-4.16,-2.82,72.3,0.796,
-2.62,-4.9,63.9,0.964,-4.25,-3.24,63.6,0.885,-2.96,-1.91,64,0.899,-4.13,-2.79,72.3,0.798,
-2.59,-4.89,63.9,0.965,-4.28,-3.23,63.5,0.885,-2.98,-1.91,64,0.898,-4.13,-2.8,72.3,0.796,
-2.61,-4.84,63.9,0.964,-4.23,-3.18,63.5,0.886,-2.94,-1.89,64.1,0.901,-4.11,-2.74,72.1,0.797,
-2.41,-4.71,64,0.967,-4.13,-3.12,63.6,0.89,-2.86,-1.85,64.2,0.906,-4,-2.69,72.3,0.802,
-1.69,-4.19,64.3,0.979,-3.95,-2.96,63.7,0.896,-2.86,-1.8,64,0.922,-3.8,-2.49,72.2,0.812,
-1.37,-3.89,64.1,0.98,-3.72,-2.73,63.6,0.906,-3,-1.89,63.9,0.927,-3.62,-2.32,72.2,0.828,
-1.9,-4.39,64.4,0.966,-4.25,-3.14,63.5,0.888,-3.08,-1.97,63.9,0.931,-3.24,-1.97,72.1,0.852,
-2.16,-4.53,64.1,0.968,-4.17,-3.05,63.5,0.891,-3.14,-2.02,64,0.936,-3.06,-1.81,72,0.87,
-2.2,-4.61,64.4,0.967,-3.85,-2.77,63.5,0.901,-3.33,-2.14,63.8,0.934,-3.05,-1.78,72,0.881,
-2.17,-4.5,64.2,0.97,-3.58,-2.53,63.5,0.922,-3.31,-2.12,63.7,0.932,-3.04,-1.74,71.9,0.887,
-2.05,-4.48,64.3,0.973,-3.15,-2.19,63.6,0.948,-3.34,-2.18,63.8,0.93,-3.02,-1.72,72.1,0.869,
-2.05,-4.52,64.3,0.973,-3.01,-2.13,63.9,0.954,-3.43,-2.3,64,0.928,-3.01,-1.7,72,0.855,
-1.94,-4.43,64.3,0.974,-3.22,-2.28,63.8,0.943,-3.46,-2.33,64,0.929,-2.95,-1.64,72,0.863,
-1.97,-4.52,64.5,0.973,-3.32,-2.35,63.7,0.934,-3.42,-2.3,64,0.929,-2.89,-1.58,71.9,0.875,
-2.23,-4.6,64.3,0.97,-3.48,-2.45,63.6,0.928,-3.39,-2.28,64.1,0.925,-2.88,-1.58,72,0.868,
-2.42,-4.69,64,0.971,-3.46,-2.43,63.5,0.932,-3.42,-2.29,64.1,0.921,-2.92,-1.62,72,0.862,
-2.51,-4.89,64.3,0.968,-3.41,-2.42,63.6,0.938,-3.43,-2.34,64.2,0.918,-2.93,-1.62,71.9,0.859,
-2.48,-4.98,64.4,0.968,-3.38,-2.45,63.7,0.94,-3.43,-2.37,64.3,0.916,-2.9,-1.61,72.1,0.855,
-2.54,-4.96,64.2,0.965,-3.48,-2.54,63.7,0.942,-3.39,-2.32,64.3,0.919,-2.77,-1.49,72.1,0.851,
-2.51,-5,64.5,0.962,-3.61,-2.64,63.7,0.944,-3.5,-2.39,64.2,0.916,-3.05,-1.71,72.1,0.833,
-2.51,-4.94,64.2,0.964,-3.57,-2.65,63.7,0.944,-3.48,-2.41,64.3,0.916,-3.09,-1.78,72.3,0.826,
-2.53,-5.03,64.4,0.964,-3.59,-2.65,63.8,0.943,-3.49,-2.4,64.3,0.915,-3.13,-1.78,72,0.823,
-2.54,-5.02,64.4,0.964,-3.58,-2.61,63.8,0.945,-3.49,-2.39,64.3,0.913,-3.11,-1.77,72.3,0.824,
-2.52,-4.95,64.3,0.965,-3.58,-2.63,63.8,0.945,-3.45,-2.36,64.2,0.913,-3.1,-1.78,72.2,0.823,
-2.49,-5,64.5,0.965,-3.6,-2.64,63.8,0.945,-3.45,-2.36,64.3,0.912,-3.11,-1.78,72.2,0.823,
-2.61,-4.82,63.7,0.968,-3.59,-2.64,63.9,0.945,-3.46,-2.35,64.2,0.91,-3.12,-1.78,72.2,0.822,
-2.58,-4.76,63.6,0.971,-3.56,-2.62,63.9,0.946,-3.42,-2.34,64.3,0.912,-3.12,-1.79,72.2,0.82,
-2.63,-4.74,63.4,0.969,-3.54,-2.58,63.7,0.946,-3.41,-2.33,64.2,0.91,-3.08,-1.78,72.4,0.822,
-2.62,-4.8,63.6,0.97,-3.42,-2.47,63.8,0.942,-3.35,-2.27,64.2,0.909,-2.91,-1.63,72.3,0.833,
-2.56,-4.8,63.8,0.972,-3.35,-2.42,63.8,0.944,-3.29,-2.25,64.3,0.911,-2.84,-1.58,72.3,0.838,
-2.53,-4.83,63.9,0.972,-3.32,-2.42,63.8,0.944,-3.3,-2.24,64.3,0.911,-2.82,-1.57,72.3,0.837,
-2.57,-4.78,63.6,0.972,-3.32,-2.39,63.8,0.945,-3.3,-2.24,64.3,0.911,-2.81,-1.56,72.4,0.838,
-2.51,-4.78,63.8,0.973,-3.29,-2.37,63.7,0.945,-3.26,-2.22,64.3,0.91,-2.76,-1.52,72.3,0.839,
-2.41,-4.8,64.1,0.975,-3.25,-2.35,63.8,0.946,-3.25,-2.22,64.3,0.91,-2.72,-1.48,72.3,0.839,
-2.43,-4.78,64,0.974,-3.23,-2.31,63.8,0.949,-3.27,-2.21,64.2,0.909,-2.68,-1.47,72.5,0.842,
-2.38,-4.82,64.3,0.975,-3.25,-2.33,63.7,0.946,-3.25,-2.18,64.2,0.911,-2.68,-1.46,72.5,0.839,
-2.3,-4.81,64.4,0.976,-3.2,-2.3,63.8,0.95,-3.23,-2.18,64.2,0.91,-2.62,-1.43,72.6,0.841,
-2.21,-4.85,64.8,0.977,-3.21,-2.3,63.8,0.947,-3.22,-2.16,64.2,0.911,-2.6,-1.4,72.5,0.84,
-2.26,-4.84,64.6,0.974,-3.18,-2.27,63.8,0.95,-3.21,-2.17,64.3,0.911,-2.58,-1.39,72.5,0.84,
-2.11,-4.88,65.1,0.976,-3.15,-2.25,63.8,0.949,-3.18,-2.17,64.3,0.91,-2.55,-1.37,72.5,0.84,
-2.18,-4.77,64.7,0.978,-3.19,-2.27,63.7,0.948,-3.19,-2.16,64.3,0.909,-2.58,-1.4,72.7,0.839,
-2.15,-4.84,64.9,0.976,-3.2,-2.29,63.8,0.948,-3.17,-2.17,64.4,0.908,-2.62,-1.42,72.5,0.837,
-2.12,-4.8,64.8,0.978,-3.16,-2.27,63.8,0.948,-3.13,-2.15,64.5,0.909,-2.59,-1.4,72.5,0.837,
-2.09,-4.74,64.8,0.98,-3.14,-2.24,63.8,0.95,-3.13,-2.12,64.2,0.909,-2.58,-1.39,72.5,0.836,
-2.05,-4.77,64.9,0.98,-3.13,-2.22,63.8,0.95,-3.12,-2.11,64.3,0.909,-2.57,-1.37,72.5,0.836,
-1.93,-4.83,65.5,0.98,-3.09,-2.21,63.8,0.951,-3.07,-2.09,64.3,0.91,-2.54,-1.38,72.7,0.835,
-1.91,-4.81,65.5,0.98,-3.07,-2.17,63.7,0.954,-3.2,-2.19,64.2,0.915,-2.42,-1.25,72.5,0.836,
-1.92,-4.79,65.3,0.979,-3.02,-2.13,63.7,0.953,-3.18,-2.18,64.3,0.917,-2.43,-1.27,72.6,0.836,
-1.88,-4.73,65.3,0.982,-2.98,-2.12,63.7,0.955,-3.19,-2.21,64.2,0.92,-2.22,-1.09,72.6,0.84,
-1.83,-4.8,65.6,0.98,-2.96,-2.1,63.8,0.955,-3.15,-2.17,64.2,0.92,-2.13,-1.02,72.7,0.843,
-1.86,-4.79,65.5,0.978,-2.96,-2.08,63.7,0.955,-3.16,-2.16,64.1,0.92,-2.15,-1,72.4,0.844,
-1.84,-4.71,65.2,0.982,-2.91,-2.08,63.8,0.957,-3.12,-2.14,64.1,0.921,-2.1,-1.01,72.8,0.844,
-1.86,-4.75,65.4,0.978,-2.91,-2.07,63.8,0.956,-3.12,-2.13,64.1,0.921,-2.11,-0.99,72.5,0.844,
-1.86,-4.66,65.1,0.98,-2.92,-2.06,63.7,0.955,-3.14,-2.14,64.1,0.922,-2.1,-0.99,72.6,0.843,
-1.87,-4.6,64.8,0.981,-2.88,-2.05,63.7,0.957,-3.11,-2.14,64.1,0.924,-1.96,-0.87,72.6,0.849,
-1.95,-4.52,64.4,0.979,-2.87,-2.02,63.5,0.956,-3.1,-2.13,64.2,0.925,-1.99,-0.89,72.5,0.844,
-1.95,-4.49,64.4,0.98,-2.87,-2,63.5,0.957,-3.11,-2.11,64.1,0.923,-2.02,-0.92,72.6,0.846,
-1.94,-4.45,64.3,0.979,-2.82,-1.99,63.6,0.956,-3.05,-2.08,64,0.928,-1.97,-0.89,72.7,0.845,
-1.89,-4.46,64.5,0.981,-2.78,-1.97,63.6,0.959,-3.06,-2.07,64,0.927,-1.96,-0.89,72.7,0.847,
-1.96,-4.42,64.2,0.98,-2.79,-1.95,63.6,0.959,-3.06,-2.05,64,0.927,-1.96,-0.85,72.5,0.845,
-1.93,-4.35,64,0.981,-2.75,-1.93,63.6,0.96,-3.02,-2.03,64,0.928,-1.9,-0.84,72.8,0.848,
-1.91,-4.35,64.1,0.982,-2.74,-1.93,63.7,0.959,-3.02,-2.02,63.9,0.927,-1.9,-0.8,72.4,0.85,
-1.95,-4.32,63.9,0.98,-2.74,-1.9,63.5,0.959,-3.02,-1.99,63.9,0.927,-1.86,-0.77,72.5,0.849,
-1.87,-4.38,64.3,0.981,-2.72,-1.88,63.5,0.961,-3,-1.98,63.9,0.928,-1.85,-0.77,72.6,0.85,
-1.9,-4.34,64.1,0.979,-2.72,-1.89,63.5,0.961,-2.99,-1.99,64,0.929,-1.85,-0.78,72.6,0.848,
-1.91,-4.28,63.9,0.98,-2.73,-1.91,63.5,0.96,-3.02,-1.99,63.9,0.93,-1.82,-0.72,72.5,0.846,
-1.89,-4.26,63.9,0.982,-2.75,-1.91,63.5,0.96,-3.05,-2.02,63.9,0.929,-1.78,-0.7,72.6,0.847,
-1.82,-4.25,64.1,0.983,-2.7,-1.9,63.6,0.96,-3.03,-2,63.9,0.931,-1.76,-0.68,72.5,0.847,
-1.86,-4.24,63.9,0.982,-2.72,-1.89,63.5,0.96,-3.04,-1.99,63.8,0.93,-1.78,-0.67,72.4,0.847,
-1.89,-4.26,64,0.981,-2.74,-1.88,63.4,0.96,-3.05,-1.99,63.8,0.93,-1.78,-0.69,72.6,0.847,
-1.88,-4.2,63.8,0.984,-2.7,-1.88,63.4,0.961,-3.01,-1.97,63.9,0.931,-1.76,-0.66,72.5,0.849,
-1.83,-4.28,64.2,0.983,-2.71,-1.88,63.5,0.959,-3,-1.95,63.9,0.93,-1.75,-0.65,72.6,0.849,
-1.88,-4.29,64.1,0.981,-2.7,-1.88,63.5,0.959,-3,-1.93,63.8,0.93,-1.72,-0.61,72.5,0.852,
-1.84,-4.24,64.1,0.983,-2.66,-1.84,63.4,0.961,-2.95,-1.92,63.9,0.932,-1.65,-0.57,72.6,0.854,
-1.83,-4.22,64,0.984,-2.64,-1.84,63.6,0.961,-2.96,-1.9,63.8,0.931,-1.64,-0.53,72.3,0.856,
-1.85,-4.21,63.9,0.983,-2.66,-1.83,63.4,0.961,-2.96,-1.9,63.9,0.931,-1.64,-0.53,72.5,0.857,
-1.83,-4.16,63.9,0.983,-2.63,-1.81,63.4,0.962,-2.95,-1.89,63.9,0.933,-1.67,-0.55,72.4,0.854,
-1.8,-4.18,63.9,0.983,-2.6,-1.81,63.5,0.962,-2.94,-1.89,63.8,0.933,-1.66,-0.54,72.4,0.856,
-1.76,-4.22,64.2,0.983,-2.62,-1.8,63.4,0.96,-2.97,-1.9,63.8,0.933,-1.68,-0.59,72.6,0.855,
-1.78,-4.18,64.1,0.984,-2.61,-1.8,63.5,0.962,-2.98,-1.9,63.8,0.933,-1.71,-0.58,72.4,0.857,
-1.77,-4.21,64.1,0.984,-2.6,-1.79,63.4,0.962,-2.96,-1.9,63.8,0.935,-1.7,-0.6,72.6,0.856,
-1.87,-4.2,63.9,0.985,-2.61,-1.79,63.4,0.962,-2.97,-1.88,63.8,0.935,-1.72,-0.59,72.4,0.855,
-1.92,-4.26,64,0.985,-2.61,-1.79,63.4,0.961,-2.98,-1.88,63.8,0.934,-1.72,-0.59,72.5,0.856,
-1.87,-4.18,63.9,0.983,-2.58,-1.76,63.4,0.962,-2.96,-1.86,63.8,0.935,-1.72,-0.58,72.4,0.858,
-1.74,-4.16,64.1,0.988,-2.57,-1.75,63.3,0.963,-2.94,-1.85,63.9,0.935,-1.72,-0.56,72.3,0.858,
-1.79,-4.15,64,0.985,-2.57,-1.74,63.3,0.963,-2.95,-1.84,63.8,0.935,-1.71,-0.56,72.4,0.856,
-1.79,-4.09,63.9,0.987,-2.56,-1.74,63.4,0.964,-2.95,-1.83,63.8,0.935,-1.68,-0.51,72.3,0.86,
-1.72,-4.09,63.9,0.99,-2.54,-1.74,63.4,0.963,-2.93,-1.81,63.7,0.937,-1.66,-0.5,72.4,0.858,
-1.74,-4.15,64.1,0.986,-2.52,-1.75,63.5,0.963,-2.94,-1.82,63.8,0.936,-1.64,-0.49,72.4,0.859,
-1.75,-4.1,64,0.987,-2.54,-1.72,63.4,0.964,-2.93,-1.81,63.8,0.937,-1.64,-0.48,72.4,0.857,
-1.69,-4.12,64.1,0.987,-2.51,-1.73,63.5,0.963,-2.9,-1.81,63.9,0.938,-1.61,-0.46,72.3,0.859,
-1.65,-4.1,64.2,0.989,-2.5,-1.72,63.5,0.965,-2.91,-1.8,63.8,0.938,-1.6,-0.44,72.3,0.859,
-1.66,-4.07,64.1,0.989,-2.5,-1.72,63.4,0.966,-2.92,-1.79,63.8,0.937,-1.6,-0.44,72.4,0.86,
-1.62,-4.06,64.2,0.989,-2.5,-1.72,63.5,0.965,-2.92,-1.82,63.9,0.939,-1.52,-0.39,72.5,0.859,
-1.57,-4.01,64.1,0.992,-2.43,-1.68,63.5,0.967,-2.92,-1.81,63.8,0.94,-1.55,-0.41,72.5,0.859,
-1.6,-4,64,0.991,-2.48,-1.7,63.3,0.965,-2.93,-1.8,63.8,0.94,-1.62,-0.45,72.4,0.855,
-1.57,-4.05,64.3,0.99,-2.46,-1.71,63.5,0.966,-2.97,-1.84,63.7,0.94,-1.63,-0.47,72.4,0.855,
-1.53,-4.02,64.2,0.992,-2.43,-1.68,63.5,0.965,-2.94,-1.81,63.7,0.941,-1.64,-0.5,72.5,0.854,
-1.57,-3.97,64,0.994,-2.45,-1.7,63.4,0.965,-2.98,-1.83,63.6,0.939,-1.69,-0.52,72.4,0.854,
-1.6,-4,64,0.991,-2.45,-1.7,63.5,0.965,-2.96,-1.81,63.7,0.94,-1.68,-0.52,72.6,0.852,
-1.51,-4.05,64.3,0.992,-2.42,-1.7,63.5,0.965,-2.94,-1.81,63.7,0.94,-1.67,-0.5,72.4,0.853,
-1.55,-3.98,64.1,0.994,-2.44,-1.69,63.4,0.966,-2.95,-1.8,63.7,0.939,-1.68,-0.52,72.5,0.854,
-1.52,-4.03,64.3,0.993,-2.45,-1.7,63.4,0.964,-2.95,-1.79,63.7,0.939,-1.7,-0.54,72.6,0.854,
-1.5,-3.96,64.1,0.997,-2.42,-1.71,63.6,0.966,-2.92,-1.8,63.9,0.938,-1.73,-0.57,72.5,0.853,
-1.51,-3.99,64.2,0.996,-2.44,-1.71,63.5,0.965,-2.95,-1.79,63.8,0.937,-1.76,-0.59,72.5,0.852,
-1.54,-3.95,64,0.995,-2.44,-1.7,63.4,0.965,-2.94,-1.79,63.8,0.938,-1.77,-0.59,72.5,0.852,
-1.48,-3.95,64.2,0.997,-2.42,-1.7,63.4,0.965,-2.92,-1.78,63.8,0.939,-1.75,-0.59,72.6,0.851,
-1.5,-3.95,64.1,0.996,-2.42,-1.7,63.4,0.966,-2.94,-1.77,63.7,0.939,-1.74,-0.57,72.7,0.851,
-1.46,-4.11,64.7,0.987,-2.4,-1.68,63.4,0.965,-2.93,-1.77,63.8,0.941,-1.72,-0.56,72.5,0.852,
-1.44,-4.09,64.6,0.989,-2.38,-1.67,63.5,0.966,-2.93,-1.79,63.8,0.941,-1.71,-0.55,72.6,0.851,
-1.46,-4.11,64.6,0.985,-2.37,-1.67,63.4,0.967,-2.97,-1.82,63.7,0.94,-1.73,-0.56,72.6,0.849,
-1.43,-4.08,64.5,0.989,-2.37,-1.66,63.5,0.966,-2.98,-1.84,63.8,0.941,-1.73,-0.57,72.5,0.849,
-1.41,-4.11,64.7,0.987,-2.36,-1.67,63.6,0.966,-2.99,-1.86,63.8,0.941,-1.73,-0.57,72.6,0.848,
-1.37,-4.12,64.8,0.988,-2.36,-1.67,63.6,0.967,-3.03,-1.88,63.7,0.941,-1.76,-0.59,72.6,0.844,
-1.4,-4.1,64.8,0.987,-2.36,-1.68,63.5,0.966,-3.03,-1.89,63.8,0.941,-1.75,-0.59,72.7,0.845,
-1.37,-4.09,64.7,0.988,-2.34,-1.68,63.7,0.966,-3.02,-1.9,63.8,0.941,-1.75,-0.59,72.6,0.844,
-1.39,-4.09,64.7,0.987,-2.36,-1.68,63.6,0.965,-3.04,-1.92,63.8,0.941,-1.75,-0.61,72.9,0.844,
-1.36,-4.07,64.7,0.99,-2.35,-1.68,63.5,0.966,-3.05,-1.92,63.8,0.94,-1.78,-0.6,72.7,0.844,
-1.37,-4.03,64.5,0.99,-2.32,-1.69,63.7,0.967,-3.03,-1.91,63.9,0.94,-1.76,-0.61,72.8,0.843,
-1.34,-4.03,64.7,0.991,-2.33,-1.68,63.7,0.967,-3.04,-1.91,63.9,0.94,-1.78,-0.59,72.6,0.843,
-1.34,-4.02,64.7,0.99,-2.34,-1.66,63.5,0.966,-3.05,-1.9,63.8,0.941,-1.79,-0.59,72.7,0.842,
-1.33,-3.96,64.5,0.992,-2.31,-1.65,63.6,0.968,-3.05,-1.9,63.8,0.942,-1.76,-0.58,72.7,0.842,
-1.29,-3.98,64.6,0.993,-2.32,-1.64,63.5,0.967,-3.06,-1.91,63.9,0.941,-1.77,-0.56,72.6,0.843,
-1.34,-3.94,64.5,0.993,-2.31,-1.64,63.6,0.967,-3.08,-1.92,63.8,0.94,-1.76,-0.57,72.8,0.843,
-1.29,-3.93,64.4,0.993,-2.28,-1.63,63.6,0.967,-3.06,-1.91,63.8,0.942,-1.75,-0.57,72.8,0.843,
-1.32,-3.95,64.5,0.99,-2.27,-1.62,63.6,0.967,-3.06,-1.92,63.9,0.942,-1.74,-0.56,72.8,0.845,
-1.32,-3.84,64.2,0.996,-2.3,-1.63,63.5,0.968,-3.17,-1.98,63.8,0.941,-1.75,-0.54,72.6,0.842,
-1.27,-3.73,64,1.001,-2.24,-1.61,63.7,0.968,-3.21,-2.05,63.8,0.943,-1.71,-0.52,72.8,0.846,
-1.24,-3.6,63.7,1.008,-2.25,-1.61,63.6,0.968,-3.11,-1.96,63.9,0.943,-1.63,-0.45,72.9,0.841,
-1.27,-3.5,63.3,1.012,-2.22,-1.59,63.7,0.97,-3.13,-1.97,63.9,0.94,-1.67,-0.46,72.7,0.846,
-1.34,-3.47,63,1.01,-2.26,-1.62,63.7,0.968,-3.12,-1.98,63.9,0.943,-1.61,-0.44,72.9,0.839,
-1.24,-3.36,63,1.017,-2.18,-1.56,63.7,0.971,-3.14,-2.01,64,0.943,-1.52,-0.34,72.8,0.845,
-1.23,-3.41,63.2,1.015,-2.21,-1.58,63.6,0.97,-3.23,-2.06,63.9,0.944,-1.53,-0.35,72.8,0.844,
-1.2,-3.4,63.3,1.016,-2.18,-1.55,63.5,0.97,-3.2,-2.04,63.9,0.944,-1.51,-0.31,72.7,0.846,
-1.23,-3.43,63.2,1.014,-2.2,-1.59,63.7,0.97,-3.2,-2.06,63.9,0.944,-1.53,-0.38,72.9,0.844,
-1.22,-3.42,63.2,1.016,-2.2,-1.59,63.7,0.969,-3.21,-2.06,63.9,0.943,-1.58,-0.39,72.8,0.844,
-1.27,-3.47,63.2,1.012,-2.22,-1.61,63.7,0.968,-3.22,-2.09,64,0.942,-1.58,-0.41,72.8,0.845,
-1.2,-3.49,63.5,1.013,-2.21,-1.59,63.6,0.968,-3.16,-2.06,64,0.943,-1.55,-0.41,72.9,0.847,
-1.19,-3.54,63.7,1.012,-2.25,-1.6,63.4,0.966,-3.18,-2.07,64,0.942,-1.58,-0.42,72.9,0.846,
-1.27,-3.49,63.4,1.011,-2.24,-1.6,63.6,0.968,-3.19,-2.05,63.9,0.942,-1.59,-0.43,72.8,0.845,
-1.16,-3.53,63.8,1.014,-2.2,-1.61,63.7,0.968,-3.12,-2.07,64.1,0.943,-1.56,-0.43,72.8,0.846,
-1.24,-3.53,63.5,1.009,-2.21,-1.62,63.6,0.968,-3.13,-2.06,64.1,0.942,-1.58,-0.46,72.9,0.844,
-1.19,-3.61,64,1.005,-2.17,-1.59,63.7,0.969,-3.12,-2.06,64,0.943,-1.58,-0.44,72.7,0.843,
-1.15,-3.63,64,1.002,-2.1,-1.55,63.6,0.971,-3.08,-2.07,64.2,0.944,-1.56,-0.46,73,0.843,
-1.2,-3.68,64,1.001,-2.16,-1.6,63.5,0.969,-3.09,-2.09,64.2,0.944,-1.56,-0.45,72.8,0.846,
-1.22,-3.69,64,1.002,-2.17,-1.63,63.7,0.967,-3.11,-2.1,64.1,0.944,-1.57,-0.46,72.9,0.844,
-1.19,-3.73,64.1,1.001,-2.16,-1.64,63.7,0.969,-3.09,-2.12,64.2,0.944,-1.56,-0.48,73,0.844,
-1.19,-3.75,64.2,1,-2.16,-1.64,63.6,0.97,-3.08,-2.13,64.2,0.944,-1.56,-0.48,73.1,0.842,
-1.17,-3.81,64.5,0.998,-2.2,-1.68,63.7,0.967,-3.2,-2.23,64.1,0.944,-1.59,-0.52,73,0.841,
-1.14,-3.76,64.4,0.999,-2.11,-1.63,63.7,0.968,-3.05,-2.12,64.3,0.945,-1.58,-0.5,72.9,0.845,
-1.15,-3.73,64.3,1.001,-2.13,-1.65,63.7,0.969,-3.1,-2.2,64.2,0.944,-1.61,-0.54,72.9,0.843,
-1.16,-3.67,64.1,1.001,-2.11,-1.63,63.7,0.969,-3.06,-2.15,64.3,0.944,-1.59,-0.54,73,0.846,
-1.13,-3.7,64.4,1.003,-2.15,-1.66,63.7,0.968,-3.09,-2.19,64.2,0.943,-1.61,-0.55,73,0.842,
-1.17,-3.62,63.9,1.003,-2.1,-1.64,63.8,0.969,-3.01,-2.14,64.3,0.945,-1.59,-0.55,73,0.845,
-1.17,-3.66,64,1.003,-2.13,-1.64,63.7,0.968,-3.03,-2.17,64.3,0.944,-1.62,-0.56,72.8,0.845,
-1.16,-3.64,64.1,1.004,-2.09,-1.61,63.6,0.968,-3.01,-2.15,64.3,0.944,-1.55,-0.51,72.9,0.847,
-1.13,-3.61,64,1.005,-2.06,-1.6,63.6,0.971,-2.97,-2.15,64.4,0.945,-1.5,-0.5,73,0.848,
-1.13,-3.59,63.9,1.006,-2.08,-1.62,63.6,0.971,-3.04,-2.22,64.4,0.945,-1.55,-0.53,73,0.845,
-1.1,-3.64,64.1,1.004,-2.08,-1.63,63.7,0.971,-3.09,-2.28,64.3,0.947,-1.55,-0.54,72.9,0.845,
-1.11,-3.63,64.1,1.003,-2.05,-1.63,63.8,0.97,-3.06,-2.3,64.5,0.947,-1.55,-0.55,72.9,0.842,
-1.11,-3.64,64.1,1.005,-2.06,-1.65,63.7,0.971,-3.07,-2.31,64.4,0.947,-1.56,-0.58,73,0.841,
-1.12,-3.65,64,1.004,-2.07,-1.68,63.9,0.971,-3.1,-2.35,64.5,0.946,-1.59,-0.6,72.9,0.839,
-1.06,-3.7,64.3,1.004,-2.04,-1.67,63.8,0.97,-3.07,-2.35,64.5,0.948,-1.57,-0.59,72.8,0.841,
-1.11,-3.66,64,1.005,-2.06,-1.69,63.9,0.97,-3.17,-2.43,64.4,0.946,-1.55,-0.58,72.9,0.841,
-1.08,-3.62,64,1.006,-2.02,-1.64,63.8,0.97,-3.06,-2.34,64.4,0.948,-1.51,-0.55,73,0.84,
-1.11,-3.68,64.2,1.003,-2.05,-1.69,63.9,0.97,-3.13,-2.44,64.5,0.947,-1.52,-0.58,72.9,0.844,
-1.05,-3.64,64.1,1.005,-2,-1.65,63.9,0.972,-3.03,-2.36,64.5,0.948,-1.47,-0.52,72.9,0.84,
-1.08,-3.66,64.2,1.004,-2.02,-1.65,63.8,0.971,-3.07,-2.41,64.6,0.947,-1.46,-0.53,73,0.843,
-1.09,-3.64,64.1,1.005,-2.02,-1.66,63.9,0.971,-3.04,-2.4,64.6,0.948,-1.45,-0.5,72.8,0.842,
-1.09,-3.6,63.9,1.005,-1.98,-1.63,63.9,0.972,-2.96,-2.35,64.6,0.948,-1.41,-0.48,72.9,0.846,
-1.08,-3.62,64.1,1.005,-2,-1.63,63.9,0.972,-3,-2.37,64.5,0.948,-1.42,-0.48,73,0.845,
-1.1,-3.56,63.9,1.006,-2,-1.62,63.8,0.971,-2.97,-2.37,64.7,0.948,-1.39,-0.46,73,0.848,
-1.07,-3.57,64,1.006,-1.96,-1.61,63.9,0.973,-2.94,-2.35,64.6,0.948,-1.38,-0.46,73,0.847,
-1.07,-3.56,64,1.007,-1.98,-1.62,63.9,0.972,-2.95,-2.37,64.6,0.949,-1.39,-0.47,72.9,0.848,
-1.05,-3.6,64.2,1.006,-1.97,-1.63,64,0.973,-2.92,-2.38,64.7,0.949,-1.39,-0.5,73.1,0.846,
-1.07,-3.57,63.9,1.006,-1.96,-1.64,63.9,0.972,-2.89,-2.38,64.7,0.948,-1.38,-0.5,73,0.846,
-1.1,-3.58,63.9,1.005,-1.97,-1.65,63.9,0.972,-2.89,-2.39,64.8,0.949,-1.41,-0.54,73.1,0.845,
-1.09,-3.61,64,1.005,-1.98,-1.66,63.9,0.973,-2.92,-2.43,64.8,0.947,-1.42,-0.55,73,0.845,
-1.04,-3.66,64.2,1.003,-1.95,-1.66,64,0.972,-2.86,-2.42,64.8,0.949,-1.41,-0.57,73.2,0.842,
-1.04,-3.61,64.1,1.005,-1.95,-1.66,64,0.971,-2.84,-2.41,64.8,0.948,-1.44,-0.6,73.2,0.842,
-1.01,-3.54,64,1.005,-1.9,-1.6,63.9,0.973,-2.72,-2.32,64.9,0.95,-1.39,-0.55,73.1,0.846,
-1,-3.53,64,1.005,-1.89,-1.6,63.9,0.973,-2.58,-2.22,64.9,0.952,-1.45,-0.62,73.1,0.862,
-0.99,-3.48,63.9,1.006,-1.9,-1.6,63.7,0.972,-2.34,-2.04,65.1,0.943,-1.48,-0.66,73.2,0.856,
-0.95,-3.52,64.2,1.005,-1.9,-1.61,63.9,0.971,-2.29,-1.98,65.1,0.939,-1.47,-0.64,73.2,0.851,
-0.97,-3.47,64,1.007,-1.89,-1.6,64,0.973,-2.25,-1.95,65.1,0.939,-1.48,-0.64,73.2,0.85,
-0.95,-3.51,64.2,1.005,-1.87,-1.58,63.9,0.973,-2.18,-1.93,65.2,0.938,-1.45,-0.63,73.3,0.854,
-0.95,-3.51,64.2,1.006,-1.87,-1.59,64,0.973,-2.18,-1.92,65.2,0.937,-1.45,-0.64,73.2,0.856,
-0.96,-3.51,64.2,1.006,-1.86,-1.6,64.1,0.973,-2.16,-1.91,65.2,0.936,-1.46,-0.64,73.3,0.855,
-0.92,-3.52,64.3,1.006,-1.84,-1.59,64.1,0.973,-2.1,-1.87,65.2,0.937,-1.43,-0.62,73.2,0.856,
-0.99,-3.45,63.9,1.005,-1.85,-1.57,64,0.974,-2.11,-1.85,65,0.936,-1.43,-0.64,73.3,0.855,
-0.97,-3.46,64,1.004,-1.84,-1.55,64,0.976,-2.11,-1.85,65,0.935,-1.43,-0.61,73.2,0.856,
-0.93,-3.48,64.2,1.001,-1.82,-1.55,64.1,0.975,-2.09,-1.83,65,0.936,-1.41,-0.64,73.5,0.855,
-0.88,-3.44,64.2,1.005,-1.83,-1.56,64,0.973,-2.09,-1.84,65.1,0.936,-1.44,-0.64,73.3,0.854,
-0.9,-3.43,64.1,1.005,-1.86,-1.59,64,0.973,-2.12,-1.85,64.9,0.935,-1.46,-0.69,73.4,0.852,
-0.94,-3.45,64.1,1.005,-1.86,-1.6,64,0.972,-2.12,-1.84,64.9,0.935,-1.47,-0.69,73.3,0.852,
-0.89,-3.49,64.3,1.005,-1.83,-1.61,64.2,0.974,-2.1,-1.83,64.9,0.936,-1.46,-0.71,73.6,0.852,
-0.94,-3.45,64,1.005,-1.86,-1.63,64.2,0.972,-2.13,-1.83,64.8,0.934,-1.49,-0.73,73.6,0.85,
-0.97,-3.47,64,1.003,-1.87,-1.63,64.2,0.972,-2.15,-1.82,64.7,0.934,-1.52,-0.73,73.4,0.85,
-0.94,-3.43,64,1.005,-1.85,-1.62,64.1,0.974,-2.11,-1.8,64.7,0.935,-1.5,-0.73,73.4,0.851,
-0.96,-3.44,63.9,1.004,-1.88,-1.62,64,0.973,-2.14,-1.79,64.5,0.934,-1.53,-0.74,73.4,0.85,
-0.94,-3.49,64.3,1.004,-1.88,-1.63,64,0.972,-2.16,-1.79,64.5,0.933,-1.54,-0.73,73.1,0.849,
-0.96,-3.41,63.9,1.007,-1.87,-1.64,64.2,0.971,-2.14,-1.79,64.5,0.934,-1.53,-0.73,73.2,0.85,
-0.95,-3.44,64,1.006,-1.86,-1.64,64.2,0.972,-2.15,-1.79,64.5,0.933,-1.54,-0.74,73.2,0.849,
-0.98,-3.42,63.9,1.006,-1.88,-1.62,64,0.972,-2.18,-1.77,64.3,0.933,-1.54,-0.74,73.3,0.849,
-0.95,-3.47,64.1,1.005,-1.88,-1.62,64,0.972,-2.19,-1.76,64.2,0.934,-1.55,-0.74,73.3,0.851,
-0.96,-3.45,64,1.004,-1.85,-1.63,64.2,0.972,-2.15,-1.75,64.2,0.934,-1.51,-0.75,73.5,0.85,
-0.99,-3.41,63.8,1.006,-1.86,-1.64,64,0.972,-2.16,-1.74,64.2,0.933,-1.51,-0.73,73.3,0.852,
-0.98,-3.48,64.2,1.003,-1.86,-1.64,64.2,0.971,-2.17,-1.74,64.2,0.933,-1.54,-0.74,73.3,0.85,
-0.96,-3.45,64.1,1.004,-1.83,-1.64,64.3,0.973,-2.12,-1.73,64.3,0.935,-1.52,-0.74,73.3,0.851,
-0.95,-3.44,64.1,1.004,-1.85,-1.63,64.2,0.973,-2.14,-1.75,64.3,0.934,-1.53,-0.74,73.3,0.851,
-0.96,-3.38,63.9,1.006,-1.85,-1.63,64.2,0.973,-2.16,-1.76,64.3,0.933,-1.57,-0.75,73.2,0.849,
-0.99,-3.35,63.8,1.006,-1.86,-1.62,64.2,0.973,-2.15,-1.75,64.2,0.933,-1.56,-0.75,73.3,0.848,
-0.97,-3.36,63.9,1.006,-1.85,-1.6,64.1,0.973,-2.11,-1.74,64.3,0.934,-1.54,-0.73,73.2,0.85,
-0.96,-3.41,64,1.004,-1.86,-1.61,64,0.972,-2.12,-1.75,64.3,0.933,-1.54,-0.72,73.2,0.852,
-0.99,-3.39,63.9,1.004,-1.86,-1.62,64.2,0.971,-2.13,-1.75,64.3,0.933,-1.57,-0.75,73.3,0.849,
-0.98,-3.38,63.9,1.003,-1.84,-1.6,64.2,0.972,-2.08,-1.74,64.4,0.934,-1.54,-0.73,73.1,0.85,
-0.99,-3.35,63.9,1.005,-1.84,-1.58,64.2,0.975,-2.08,-1.74,64.4,0.933,-1.55,-0.72,73.1,0.85,
-1.02,-3.35,63.9,1.003,-1.87,-1.58,64.1,0.973,-2.1,-1.74,64.3,0.934,-1.53,-0.72,73.4,0.852,
-1,-3.38,64,1.001,-1.83,-1.56,64.1,0.974,-2.07,-1.74,64.5,0.933,-1.53,-0.7,73.2,0.851,
-0.93,-3.42,64.3,1.001,-1.82,-1.55,64.1,0.974,-2.04,-1.75,64.6,0.933,-1.5,-0.69,73.2,0.853,
-0.94,-3.35,64,1.005,-1.84,-1.56,64.1,0.974,-2.08,-1.77,64.6,0.933,-1.53,-0.69,73.2,0.852,
-0.94,-3.4,64.2,1.003,-1.85,-1.56,64.3,0.973,-2.1,-1.78,64.6,0.932,-1.54,-0.7,73.1,0.853,
-0.94,-3.4,64.1,1.002,-1.84,-1.58,64.1,0.973,-2.06,-1.8,64.8,0.932,-1.55,-0.72,73.2,0.85,
-1,-3.5,64.3,0.996,-1.88,-1.59,64.1,0.973,-2.11,-1.83,64.7,0.932,-1.61,-0.75,73.1,0.847,
-1.02,-3.48,64.1,0.998,-1.92,-1.6,64,0.972,-2.14,-1.85,64.6,0.93,-1.62,-0.77,73.2,0.846,
-1.01,-3.46,64.1,1.002,-1.91,-1.61,64.1,0.972,-2.11,-1.85,64.7,0.931,-1.64,-0.77,73.2,0.846,
-1.02,-3.46,64.2,1.001,-1.92,-1.62,64.1,0.97,-2.11,-1.84,64.7,0.929,-1.61,-0.76,73.3,0.847,
-1.06,-3.46,64,1,-1.92,-1.63,64.2,0.971,-2.11,-1.84,64.7,0.93,-1.64,-0.76,73.1,0.845,
-1.05,-3.51,64.3,0.999,-1.93,-1.61,64.1,0.971,-2.11,-1.83,64.7,0.931,-1.62,-0.75,73.2,0.847,
-1.07,-3.47,64.1,0.999,-1.92,-1.61,64.1,0.971,-2.1,-1.83,64.6,0.93,-1.62,-0.74,73.2,0.847,
-1.12,-3.4,63.8,1.002,-1.93,-1.61,64.2,0.972,-2.1,-1.82,64.7,0.931,-1.61,-0.73,73.1,0.847,
-1.11,-3.43,63.9,1.001,-1.94,-1.61,64.1,0.97,-2.11,-1.82,64.6,0.93,-1.61,-0.72,73.1,0.847,
-1.05,-3.41,64,1.005,-1.92,-1.6,64.1,0.972,-2.08,-1.82,64.7,0.931,-1.58,-0.71,73.2,0.847,
-1.13,-3.34,63.6,1.005,-1.93,-1.6,64.1,0.971,-2.11,-1.82,64.6,0.93,-1.58,-0.71,73.3,0.848,
-1.12,-3.4,63.8,1.003,-1.95,-1.61,64.1,0.969,-2.12,-1.84,64.6,0.929,-1.6,-0.72,73.2,0.846,
-1.11,-3.35,63.6,1.004,-1.92,-1.6,64.1,0.971,-2.1,-1.83,64.6,0.931,-1.6,-0.72,73.1,0.847,
-1.11,-3.35,63.7,1.006,-1.94,-1.59,64,0.972,-2.12,-1.82,64.5,0.93,-1.62,-0.72,73.1,0.847,
-1.13,-3.39,63.8,1.002,-1.95,-1.6,64.1,0.971,-2.11,-1.82,64.6,0.929,-1.63,-0.73,73.3,0.849,
-1.14,-3.38,63.7,1.003,-1.95,-1.6,64.1,0.971,-2.12,-1.82,64.6,0.93,-1.64,-0.74,73.2,0.846,
-1.13,-3.31,63.5,1.005,-1.95,-1.6,64.2,0.972,-2.11,-1.83,64.6,0.929,-1.64,-0.74,73.1,0.846,
-1.12,-3.37,63.8,1.002,-1.96,-1.59,64.1,0.971,-2.14,-1.8,64.4,0.929,-1.64,-0.75,73.4,0.845,
-1.17,-3.34,63.7,1.002,-1.97,-1.59,64.1,0.971,-2.11,-1.79,64.6,0.929,-1.64,-0.72,73.2,0.845,
-1.17,-3.29,63.5,1.004,-1.95,-1.59,64.2,0.969,-2.09,-1.79,64.6,0.93,-1.63,-0.71,73.1,0.846,
-1.13,-3.35,63.7,1.004,-1.96,-1.58,64.1,0.971,-2.12,-1.8,64.6,0.929,-1.62,-0.71,73.2,0.847,
-1.19,-3.31,63.5,1.005,-1.98,-1.57,64,0.971,-2.15,-1.8,64.5,0.928,-1.64,-0.7,73.1,0.847,
-1.21,-3.35,63.5,1,-1.95,-1.58,64.2,0.972,-2.13,-1.8,64.5,0.929,-1.63,-0.7,73.1,0.848,
-1.15,-3.3,63.6,1.005,-1.97,-1.58,64.1,0.971,-2.11,-1.78,64.6,0.93,-1.66,-0.72,73,0.845,
-1.16,-3.29,63.6,1.004,-1.98,-1.56,64,0.971,-2.13,-1.76,64.5,0.93,-1.68,-0.7,72.9,0.846,
-1.13,-3.31,63.8,1.006,-1.96,-1.54,64,0.972,-2.13,-1.75,64.5,0.93,-1.64,-0.7,73.2,0.847,
-1.17,-3.25,63.5,1.006,-1.94,-1.53,64,0.972,-2.11,-1.74,64.5,0.93,-1.63,-0.66,73.1,0.848,
-1.17,-3.23,63.6,1.006,-1.91,-1.51,64.3,0.974,-2.1,-1.72,64.5,0.93,-1.59,-0.64,73.2,0.85,
-1.15,-3.18,63.5,1.006,-1.89,-1.44,64,0.976,-2.13,-1.72,64.4,0.93,-1.59,-0.6,72.9,0.85,
-1.16,-3.18,63.5,1.005,-1.9,-1.47,64.1,0.974,-2.08,-1.7,64.5,0.931,-1.57,-0.59,73,0.851,
-1.29,-3.29,63.5,1.004,-1.98,-1.51,64,0.972,-2.11,-1.7,64.5,0.93,-1.6,-0.61,73.1,0.85,
-1.46,-3.34,63.2,1.005,-2.1,-1.57,63.9,0.974,-2.24,-1.79,64.5,0.927,-1.63,-0.65,73.3,0.851,
-1.49,-3.38,63.3,1.005,-2.07,-1.55,64,0.973,-2.22,-1.77,64.4,0.927,-1.62,-0.64,73.2,0.85,
-1.53,-3.46,63.4,1.002,-2.08,-1.55,64,0.974,-2.21,-1.75,64.5,0.926,-1.63,-0.59,72.9,0.851,
-1.47,-3.46,63.7,1.005,-2.14,-1.59,63.9,0.972,-2.28,-1.77,64.3,0.926,-1.63,-0.62,73.1,0.849,
-1.53,-3.41,63.3,1.004,-2.17,-1.6,63.9,0.972,-2.27,-1.78,64.5,0.925,-1.65,-0.6,72.9,0.849,
-1.54,-3.41,63.3,1.004,-2.21,-1.62,63.8,0.971,-2.27,-1.79,64.5,0.924,-1.64,-0.62,73.1,0.849,
-1.57,-3.42,63.3,1.002,-2.21,-1.63,64,0.971,-2.29,-1.77,64.4,0.924,-1.66,-0.63,73.1,0.85,
-1.6,-3.44,63.4,1.002,-2.22,-1.6,63.9,0.973,-2.3,-1.77,64.5,0.922,-1.68,-0.65,73.2,0.85,
-1.54,-3.47,63.6,1.003,-2.18,-1.57,63.9,0.973,-2.26,-1.73,64.4,0.924,-1.68,-0.62,73,0.849,
-1.58,-3.5,63.6,1,-2.18,-1.55,63.8,0.973,-2.24,-1.71,64.4,0.924,-1.68,-0.63,73.1,0.849,
-1.64,-3.48,63.4,0.998,-2.18,-1.54,63.8,0.974,-2.24,-1.68,64.3,0.923,-1.69,-0.64,73.2,0.846,
-1.69,-3.45,63.2,0.998,-2.19,-1.54,63.8,0.974,-2.25,-1.69,64.3,0.923,-1.7,-0.62,73.1,0.849,
-1.6,-3.54,63.8,0.998,-2.18,-1.53,63.9,0.975,-2.24,-1.7,64.4,0.923,-1.7,-0.63,73,0.847,
-1.74,-3.44,63.1,0.998,-2.21,-1.54,63.8,0.973,-2.27,-1.71,64.4,0.923,-1.71,-0.62,72.9,0.849,
-1.72,-3.44,63.1,0.999,-2.22,-1.55,63.9,0.973,-2.3,-1.74,64.5,0.923,-1.72,-0.64,73,0.85,
-1.64,-3.52,63.6,0.997,-2.2,-1.54,64,0.974,-2.29,-1.75,64.4,0.923,-1.71,-0.63,73,0.851,
-1.61,-3.55,63.8,0.997,-2.21,-1.54,63.8,0.973,-2.31,-1.76,64.5,0.922,-1.72,-0.65,73.1,0.849,
-1.69,-3.51,63.6,0.996,-2.22,-1.54,63.8,0.972,-2.33,-1.77,64.4,0.921,-1.73,-0.64,73,0.851,
-1.63,-3.57,63.8,0.997,-2.24,-1.55,63.7,0.972,-2.33,-1.78,64.5,0.922,-1.75,-0.64,72.9,0.85,
-1.61,-3.51,63.7,1.002,-2.22,-1.57,64,0.973,-2.33,-1.77,64.4,0.922,-1.76,-0.66,73,0.847,
-1.64,-3.55,63.7,1.001,-2.26,-1.59,63.8,0.972,-2.33,-1.78,64.5,0.921,-1.75,-0.67,73.1,0.85,
-1.56,-3.63,64.2,1.003,-2.29,-1.6,63.9,0.972,-2.34,-1.78,64.4,0.921,-1.78,-0.68,72.9,0.845,
-1.62,-3.53,63.7,1.004,-2.28,-1.6,63.8,0.972,-2.32,-1.78,64.4,0.922,-1.75,-0.66,73.1,0.85,
-1.61,-3.68,64.2,0.999,-2.3,-1.6,63.7,0.971,-2.32,-1.78,64.5,0.921,-1.77,-0.67,72.9,0.846,
-1.64,-3.63,64,1.002,-2.3,-1.61,63.9,0.971,-2.32,-1.78,64.5,0.921,-1.77,-0.67,73,0.848,
-1.7,-3.64,63.8,0.998,-2.3,-1.6,63.8,0.97,-2.32,-1.78,64.5,0.921,-1.77,-0.67,72.9,0.847,
-1.7,-3.63,63.8,1,-2.3,-1.61,63.8,0.97,-2.31,-1.77,64.4,0.921,-1.76,-0.67,72.9,0.848,
-1.69,-3.68,64,0.998,-2.29,-1.6,63.8,0.969,-2.32,-1.78,64.5,0.92,-1.77,-0.67,73,0.848,
-1.43,-3.48,64.2,1.004,-2.18,-1.53,64,0.965,-2.26,-1.71,64.4,0.925,-1.76,-0.63,72.8,0.848,
-1.45,-3.35,63.7,1,-2.14,-1.5,63.9,0.963,-2.2,-1.7,64.5,0.927,-1.7,-0.6,72.9,0.852,
-1.4,-3.35,63.8,1.002,-2.13,-1.5,63.9,0.964,-2.21,-1.68,64.4,0.927,-1.71,-0.6,72.8,0.85,
-1.39,-3.35,63.9,1.001,-2.12,-1.47,63.8,0.966,-2.2,-1.67,64.4,0.927,-1.69,-0.6,72.9,0.85,
-1.43,-3.26,63.5,1.002,-2.1,-1.47,63.9,0.965,-2.18,-1.68,64.5,0.927,-1.7,-0.59,72.8,0.849,
-1.45,-3.26,63.5,0.999,-2.09,-1.45,63.9,0.964,-2.18,-1.67,64.4,0.927,-1.66,-0.56,72.8,0.852,
-1.43,-3.26,63.5,0.999,-2.09,-1.45,63.8,0.966,-2.2,-1.67,64.4,0.927,-1.68,-0.56,72.5,0.851,
-1.44,-3.34,63.9,0.998,-2.09,-1.46,64,0.965,-2.22,-1.66,64.3,0.926,-1.69,-0.57,72.7,0.849,
-1.74,-3.59,63.8,0.995,-2.2,-1.47,63.7,0.978,-2.25,-1.69,64.3,0.922,-1.68,-0.6,72.9,0.849,
-1.84,-3.75,63.9,0.993,-2.35,-1.57,63.6,0.982,-2.29,-1.7,64.3,0.919,-1.72,-0.59,72.6,0.847,
-1.91,-3.76,63.9,0.99,-2.45,-1.64,63.7,0.981,-2.31,-1.69,64.2,0.918,-1.72,-0.61,72.8,0.846,
-2.12,-3.75,63.2,0.981,-2.47,-1.66,63.7,0.977,-2.28,-1.66,64.3,0.919,-1.71,-0.6,72.8,0.844,
-2.19,-3.77,63,0.979,-2.53,-1.7,63.6,0.976,-2.28,-1.66,64.3,0.918,-1.7,-0.6,72.8,0.844,
-2.29,-3.77,62.8,0.978,-2.64,-1.76,63.5,0.974,-2.31,-1.68,64.3,0.917,-1.72,-0.59,72.8,0.842,
-2.29,-3.85,63,0.975,-2.68,-1.83,63.7,0.971,-2.32,-1.69,64.4,0.917,-1.72,-0.59,72.7,0.843,
-2.31,-3.84,63,0.975,-2.71,-1.84,63.5,0.969,-2.33,-1.68,64.3,0.917,-1.72,-0.59,72.6,0.843,
-2.37,-3.81,62.7,0.975,-2.71,-1.84,63.6,0.968,-2.34,-1.69,64.3,0.917,-1.73,-0.59,72.5,0.841,
-2.29,-3.87,63.1,0.977,-2.71,-1.84,63.6,0.966,-2.36,-1.68,64.3,0.917,-1.74,-0.59,72.7,0.84,
-2.28,-3.92,63.2,0.972,-2.67,-1.82,63.6,0.966,-2.34,-1.68,64.3,0.918,-1.72,-0.58,72.4,0.841,
-2.27,-3.78,62.8,0.98,-2.67,-1.79,63.6,0.966,-2.35,-1.67,64.2,0.917,-1.72,-0.58,72.7,0.842,
-2.21,-3.77,63,0.981,-2.65,-1.78,63.6,0.966,-2.37,-1.66,64.2,0.916,-1.75,-0.58,72.5,0.841,
-2.18,-3.79,63.2,0.981,-2.64,-1.75,63.6,0.966,-2.37,-1.65,64.2,0.917,-1.74,-0.58,72.6,0.841,
-2.2,-3.68,62.8,0.984,-2.61,-1.73,63.6,0.967,-2.36,-1.64,64.2,0.917,-1.75,-0.58,72.6,0.84,
-2.16,-3.68,62.9,0.985,-2.58,-1.69,63.6,0.965,-2.36,-1.64,64.2,0.917,-1.75,-0.56,72.5,0.842,
-2.15,-3.7,63.1,0.983,-2.57,-1.67,63.7,0.966,-2.36,-1.61,64.1,0.917,-1.74,-0.55,72.7,0.841,
-2.14,-3.68,63,0.984,-2.55,-1.65,63.6,0.967,-2.33,-1.59,64.2,0.918,-1.71,-0.52,72.5,0.841,
-2.18,-3.71,63.1,0.982,-2.6,-1.68,63.6,0.967,-2.33,-1.58,64.2,0.918,-1.7,-0.51,72.6,0.841,
-2.24,-3.69,62.9,0.981,-2.64,-1.69,63.6,0.966,-2.33,-1.58,64.2,0.917,-1.71,-0.5,72.6,0.842,
-2.2,-3.78,63.3,0.979,-2.69,-1.71,63.4,0.966,-2.34,-1.57,64.2,0.916,-1.73,-0.49,72.4,0.839,
-2.22,-3.74,63.1,0.983,-2.73,-1.73,63.5,0.966,-2.34,-1.58,64.3,0.917,-1.73,-0.51,72.5,0.84,
-2.2,-3.8,63.4,0.985,-2.8,-1.78,63.4,0.964,-2.38,-1.61,64.2,0.915,-1.77,-0.54,72.6,0.837,
-2.26,-3.86,63.4,0.982,-2.85,-1.82,63.5,0.961,-2.43,-1.63,64.2,0.914,-1.79,-0.56,72.6,0.836,
-2.26,-3.86,63.4,0.982,-2.86,-1.84,63.5,0.96,-2.43,-1.65,64.3,0.914,-1.8,-0.56,72.5,0.836,
-2.19,-3.86,63.6,0.985,-2.86,-1.82,63.5,0.961,-2.45,-1.65,64.2,0.914,-1.82,-0.56,72.5,0.836,
-2.16,-3.88,63.8,0.985,-2.86,-1.81,63.5,0.96,-2.47,-1.65,64.2,0.914,-1.82,-0.58,72.6,0.836,
-2.14,-3.89,63.9,0.987,-2.89,-1.82,63.3,0.958,-2.49,-1.65,64.2,0.914,-1.84,-0.56,72.4,0.837,
-2.16,-3.87,63.7,0.988,-2.87,-1.84,63.6,0.959,-2.47,-1.65,64.3,0.914,-1.82,-0.57,72.5,0.837,
-2.2,-3.91,63.8,0.986,-2.92,-1.86,63.5,0.957,-2.5,-1.65,64.2,0.914,-1.85,-0.57,72.5,0.836,
-2.25,-3.9,63.6,0.986,-2.96,-1.87,63.5,0.958,-2.52,-1.67,64.3,0.912,-1.86,-0.58,72.5,0.835,
-2.17,-3.98,64.1,0.987,-2.96,-1.88,63.5,0.958,-2.53,-1.66,64.1,0.912,-1.87,-0.58,72.5,0.835,
-2.2,-3.98,64.1,0.985,-2.97,-1.87,63.4,0.957,-2.52,-1.66,64.2,0.913,-1.86,-0.57,72.5,0.838,
-2.23,-3.89,63.7,0.99,-2.98,-1.88,63.5,0.958,-2.55,-1.67,64.2,0.911,-1.86,-0.59,72.6,0.836,
-2.23,-3.99,64,0.985,-3,-1.89,63.5,0.956,-2.57,-1.67,64.1,0.911,-1.88,-0.58,72.5,0.836,
-2.26,-3.91,63.7,0.987,-2.98,-1.88,63.4,0.956,-2.54,-1.67,64.2,0.911,-1.87,-0.58,72.5,0.836,
-2.27,-3.94,63.8,0.985,-3,-1.89,63.5,0.955,-2.55,-1.67,64.2,0.911,-1.87,-0.57,72.6,0.839,
-2.21,-4.02,64.3,0.983,-3.01,-1.88,63.5,0.955,-2.56,-1.67,64.2,0.911,-1.87,-0.59,72.6,0.836,
-2.25,-3.94,64,0.986,-3.02,-1.88,63.4,0.956,-2.56,-1.66,64.1,0.911,-1.88,-0.58,72.5,0.837,
-2.2,-3.99,64.2,0.985,-3,-1.89,63.5,0.956,-2.54,-1.68,64.3,0.911,-1.85,-0.58,72.7,0.838,
-2.28,-3.96,63.9,0.983,-3.02,-1.89,63.5,0.954,-2.56,-1.66,64,0.911,-1.88,-0.56,72.3,0.837,
-2.32,-3.89,63.6,0.985,-3.04,-1.89,63.5,0.954,-2.56,-1.68,64.2,0.91,-1.87,-0.57,72.4,0.838,
-2.22,-3.92,64,0.987,-3.02,-1.88,63.4,0.955,-2.54,-1.66,64.1,0.912,-1.84,-0.57,72.5,0.84,
-2.25,-3.96,64,0.983,-3.03,-1.89,63.5,0.954,-2.54,-1.67,64.2,0.911,-1.85,-0.57,72.5,0.838,
-2.31,-3.9,63.7,0.984,-3.03,-1.88,63.5,0.954,-2.55,-1.66,64.1,0.911,-1.86,-0.58,72.5,0.836,
-2.23,-3.91,63.9,0.986,-3,-1.88,63.6,0.955,-2.51,-1.67,64.2,0.912,-1.85,-0.56,72.5,0.837,
-2.25,-3.9,63.9,0.985,-3.01,-1.86,63.4,0.954,-2.5,-1.66,64.2,0.912,-1.83,-0.56,72.4,0.838,
-2.25,-3.88,63.9,0.986,-3,-1.85,63.4,0.954,-2.51,-1.65,64.1,0.912,-1.82,-0.55,72.5,0.838,
-2.26,-3.93,64,0.982,-2.97,-1.84,63.5,0.954,-2.49,-1.65,64.2,0.912,-1.82,-0.55,72.4,0.837,
-2.23,-3.9,63.9,0.983,-2.95,-1.82,63.5,0.955,-2.45,-1.63,64.2,0.913,-1.78,-0.54,72.5,0.839,
-2.25,-3.84,63.8,0.986,-2.93,-1.82,63.6,0.955,-2.45,-1.62,64,0.912,-1.77,-0.53,72.4,0.84,
-2.26,-3.86,63.8,0.984,-2.95,-1.8,63.5,0.952,-2.43,-1.61,64.1,0.912,-1.77,-0.53,72.5,0.837,
-2.21,-3.88,64.1,0.985,-2.93,-1.8,63.4,0.955,-2.37,-1.59,64.2,0.913,-1.72,-0.51,72.5,0.839,
-2.24,-3.89,64,0.985,-2.95,-1.83,63.5,0.954,-2.37,-1.59,64.2,0.913,-1.72,-0.52,72.6,0.836,
-2.32,-3.91,63.9,0.981,-2.99,-1.84,63.4,0.952,-2.38,-1.59,64.1,0.914,-1.71,-0.51,72.5,0.836,
-2.25,-3.94,64.1,0.984,-2.97,-1.85,63.5,0.953,-2.35,-1.6,64.1,0.914,-1.68,-0.52,72.7,0.836,
-2.27,-3.94,64.1,0.984,-2.99,-1.88,63.5,0.952,-2.37,-1.6,64.1,0.914,-1.67,-0.52,72.6,0.835,
-2.32,-3.95,63.9,0.982,-3.01,-1.9,63.5,0.951,-2.39,-1.63,64.1,0.913,-1.7,-0.51,72.3,0.834,
-2.38,-3.89,63.5,0.983,-3.01,-1.92,63.5,0.95,-2.38,-1.64,64.1,0.913,-1.67,-0.55,72.6,0.833,
-2.33,-3.94,63.8,0.983,-3.02,-1.94,63.6,0.949,-2.38,-1.64,64,0.912,-1.67,-0.54,72.5,0.834,
-2.36,-3.94,63.8,0.982,-3.01,-1.92,63.6,0.949,-2.37,-1.65,64.1,0.913,-1.68,-0.53,72.4,0.833,
-2.33,-3.97,64,0.98,-2.97,-1.92,63.5,0.949,-2.39,-1.65,64,0.913,-1.66,-0.55,72.5,0.833,
-2.26,-3.96,64,0.985,-2.96,-1.9,63.5,0.949,-2.34,-1.64,64,0.914,-1.64,-0.53,72.4,0.834,
-2.31,-3.91,63.8,0.986,-2.97,-1.92,63.5,0.948,-2.37,-1.65,64,0.913,-1.64,-0.53,72.5,0.833,
-2.42,-3.89,63.4,0.983,-2.98,-1.94,63.6,0.948,-2.38,-1.67,64.1,0.912,-1.65,-0.54,72.4,0.832,
-2.28,-4,64.2,0.983,-2.97,-1.93,63.5,0.95,-2.35,-1.66,64.1,0.913,-1.63,-0.53,72.4,0.832,
-2.26,-4.01,64.3,0.984,-2.97,-1.92,63.4,0.95,-2.35,-1.65,64,0.913,-1.63,-0.52,72.3,0.832,
-2.21,-3.94,64.2,0.99,-2.96,-1.92,63.6,0.949,-2.36,-1.65,64,0.913,-1.62,-0.54,72.7,0.832,
-2.25,-3.91,64.1,0.989,-2.97,-1.9,63.4,0.949,-2.36,-1.65,64,0.913,-1.61,-0.53,72.6,0.833,
-2.23,-3.95,64.2,0.986,-2.94,-1.91,63.5,0.949,-2.34,-1.65,64,0.915,-1.61,-0.54,72.6,0.832,
-2.25,-3.91,64.1,0.988,-2.96,-1.91,63.4,0.95,-2.36,-1.65,64,0.913,-1.62,-0.54,72.5,0.831,
-2.27,-3.92,64.2,0.988,-2.96,-1.9,63.5,0.949,-2.36,-1.65,64,0.914,-1.64,-0.55,72.4,0.829,
-2.3,-3.93,64,0.985,-2.92,-1.89,63.6,0.948,-2.34,-1.64,64,0.914,-1.62,-0.54,72.5,0.829,
-2.24,-3.92,64.2,0.988,-2.91,-1.88,63.5,0.949,-2.33,-1.64,64,0.915,-1.63,-0.53,72.3,0.83,
-2.31,-3.89,64,0.987,-2.91,-1.86,63.5,0.949,-2.33,-1.62,64,0.915,-1.63,-0.53,72.4,0.83,
-2.31,-3.93,64.1,0.985,-2.91,-1.85,63.5,0.95,-2.31,-1.61,64.1,0.916,-1.63,-0.54,72.5,0.829,
-2.36,-3.89,63.9,0.983,-2.87,-1.84,63.5,0.95,-2.29,-1.59,64,0.916,-1.61,-0.52,72.4,0.83,
-2.39,-3.92,63.9,0.981,-2.88,-1.82,63.5,0.949,-2.29,-1.59,64,0.917,-1.61,-0.52,72.5,0.83,
-2.47,-3.88,63.7,0.979,-2.9,-1.81,63.4,0.95,-2.29,-1.59,64.1,0.916,-1.62,-0.51,72.4,0.829,
-2.38,-3.92,64,0.979,-2.86,-1.81,63.5,0.95,-2.27,-1.59,64.1,0.918,-1.59,-0.5,72.4,0.833,
-2.41,-3.86,63.8,0.979,-2.88,-1.82,63.5,0.949,-2.31,-1.6,64,0.917,-1.61,-0.51,72.4,0.833,
-2.38,-3.88,63.9,0.981,-2.87,-1.79,63.3,0.95,-2.33,-1.62,64.1,0.917,-1.63,-0.53,72.5,0.831,
-2.38,-3.77,63.6,0.982,-2.77,-1.75,63.5,0.95,-2.32,-1.62,64.1,0.918,-1.63,-0.53,72.4,0.832,
-2.04,-3.57,63.9,0.987,-2.62,-1.67,63.5,0.943,-2.31,-1.61,64,0.921,-1.62,-0.53,72.5,0.834,
-1.87,-3.41,63.8,0.988,-2.57,-1.64,63.5,0.94,-2.31,-1.61,64,0.922,-1.62,-0.53,72.5,0.833,
-1.91,-3.39,63.6,0.985,-2.53,-1.63,63.5,0.942,-2.31,-1.6,64,0.922,-1.61,-0.53,72.6,0.834,
-1.96,-3.34,63.3,0.983,-2.48,-1.61,63.6,0.943,-2.28,-1.6,64,0.923,-1.59,-0.52,72.5,0.835,
-1.93,-3.37,63.5,0.98,-2.46,-1.59,63.6,0.944,-2.28,-1.61,64,0.922,-1.59,-0.52,72.5,0.835,
-1.94,-3.34,63.4,0.982,-2.46,-1.56,63.5,0.945,-2.3,-1.6,64,0.922,-1.61,-0.51,72.4,0.835,
-1.87,-3.39,63.8,0.979,-2.42,-1.54,63.5,0.946,-2.27,-1.56,63.8,0.924,-1.56,-0.5,72.6,0.837,
-1.82,-3.37,63.9,0.981,-2.39,-1.52,63.5,0.948,-2.26,-1.57,63.9,0.922,-1.55,-0.48,72.6,0.839,
-1.84,-3.31,63.6,0.983,-2.38,-1.51,63.5,0.948,-2.25,-1.59,64.1,0.922,-1.55,-0.49,72.6,0.838,
-1.82,-3.3,63.7,0.983,-2.38,-1.5,63.5,0.948,-2.26,-1.56,63.9,0.923,-1.55,-0.49,72.5,0.835,
-1.82,-3.25,63.5,0.984,-2.37,-1.48,63.4,0.948,-2.24,-1.57,63.9,0.923,-1.54,-0.48,72.5,0.838,
-1.82,-3.23,63.5,0.984,-2.37,-1.48,63.4,0.948,-2.28,-1.57,63.8,0.922,-1.54,-0.51,72.7,0.837,
-1.75,-3.3,63.9,0.986,-2.36,-1.49,63.6,0.949,-2.3,-1.58,63.8,0.921,-1.58,-0.5,72.4,0.836,
-1.76,-3.25,63.6,0.986,-2.35,-1.47,63.4,0.949,-2.27,-1.58,63.9,0.922,-1.55,-0.52,72.6,0.836,
-1.64,-3.26,64.1,0.992,-2.36,-1.47,63.4,0.949,-2.28,-1.59,63.9,0.922,-1.56,-0.51,72.5,0.835,
-1.69,-3.2,63.8,0.993,-2.37,-1.47,63.4,0.949,-2.29,-1.59,63.9,0.92,-1.55,-0.53,72.8,0.834,
-1.68,-3.19,63.8,0.992,-2.35,-1.47,63.4,0.95,-2.26,-1.56,63.9,0.922,-1.55,-0.5,72.6,0.835,
-1.63,-3.22,64,0.991,-2.34,-1.44,63.4,0.951,-2.25,-1.56,63.9,0.922,-1.53,-0.5,72.7,0.835,
-1.63,-3.23,64,0.99,-2.34,-1.45,63.4,0.951,-2.28,-1.57,63.9,0.922,-1.55,-0.51,72.6,0.834,
-1.67,-3.16,63.7,0.993,-2.36,-1.44,63.3,0.951,-2.28,-1.58,63.9,0.922,-1.57,-0.49,72.3,0.835,
-1.62,-3.2,63.9,0.992,-2.34,-1.45,63.3,0.95,-2.26,-1.57,63.9,0.924,-1.55,-0.52,72.7,0.834,
-1.61,-3.16,63.8,0.995,-2.35,-1.44,63.4,0.95,-2.28,-1.58,63.9,0.923,-1.56,-0.52,72.6,0.835,
-1.58,-3.21,64.1,0.993,-2.35,-1.45,63.4,0.949,-2.31,-1.57,63.8,0.922,-1.57,-0.52,72.5,0.833,
-1.66,-3.16,63.7,0.99,-2.33,-1.43,63.3,0.951,-2.28,-1.57,63.9,0.924,-1.56,-0.51,72.6,0.834,
-1.6,-3.21,64.1,0.99,-2.32,-1.43,63.4,0.951,-2.29,-1.58,63.8,0.922,-1.57,-0.51,72.5,0.833,
-1.61,-3.11,63.8,0.995,-2.33,-1.42,63.3,0.952,-2.3,-1.56,63.7,0.923,-1.57,-0.49,72.4,0.835,
-1.59,-3.15,63.9,0.992,-2.32,-1.41,63.3,0.952,-2.28,-1.57,64,0.924,-1.55,-0.5,72.5,0.835,
-1.56,-3.11,63.8,0.993,-2.32,-1.39,63.2,0.952,-2.29,-1.55,63.8,0.923,-1.56,-0.49,72.4,0.834,
-1.57,-3.09,63.7,0.993,-2.32,-1.38,63.1,0.951,-2.31,-1.56,63.8,0.922,-1.56,-0.49,72.5,0.837,
-1.59,-3.09,63.7,0.993,-2.32,-1.39,63.2,0.952,-2.32,-1.55,63.8,0.923,-1.57,-0.48,72.4,0.841,
-1.61,-3.09,63.7,0.989,-2.31,-1.37,63.2,0.953,-2.28,-1.53,63.9,0.924,-1.55,-0.46,72.2,0.843,
-1.6,-3.1,63.6,0.99,-2.31,-1.39,63.3,0.952,-2.3,-1.54,63.9,0.924,-1.57,-0.49,72.4,0.839,
-1.61,-3.1,63.7,0.99,-2.34,-1.38,63.2,0.952,-2.32,-1.53,63.8,0.923,-1.59,-0.49,72.3,0.839,
-1.65,-3.03,63.5,0.992,-2.34,-1.37,63.2,0.952,-2.32,-1.53,63.8,0.923,-1.59,-0.48,72.4,0.837,
-1.56,-3.12,63.9,0.99,-2.34,-1.35,63.1,0.952,-2.31,-1.51,63.7,0.924,-1.57,-0.47,72.5,0.839,
-1.62,-3.02,63.5,0.992,-2.35,-1.34,63,0.952,-2.32,-1.52,63.9,0.923,-1.59,-0.48,72.4,0.839,
-1.66,-3.03,63.4,0.989,-2.36,-1.34,63,0.952,-2.34,-1.51,63.8,0.924,-1.62,-0.48,72.3,0.837,
-1.57,-3.05,63.8,0.992,-2.34,-1.32,63.1,0.955,-2.35,-1.5,63.7,0.924,-1.61,-0.46,72.2,0.839,
-1.58,-3.05,63.8,0.991,-2.34,-1.32,63.1,0.954,-2.36,-1.49,63.7,0.925,-1.61,-0.47,72.5,0.837,
-1.69,-2.97,63.3,0.99,-2.36,-1.31,63,0.953,-2.36,-1.51,63.8,0.923,-1.6,-0.47,72.5,0.839,
-1.61,-3.06,63.8,0.991,-2.38,-1.32,63,0.952,-2.38,-1.49,63.7,0.924,-1.63,-0.46,72.4,0.837,
-1.65,-2.97,63.3,0.99,-2.34,-1.3,63,0.955,-2.36,-1.48,63.7,0.924,-1.59,-0.45,72.4,0.84,
-1.59,-3,63.7,0.992,-2.36,-1.3,63,0.954,-2.37,-1.48,63.7,0.924,-1.62,-0.45,72.3,0.838,
-1.64,-2.98,63.5,0.989,-2.38,-1.3,63.1,0.955,-2.39,-1.48,63.7,0.924,-1.63,-0.46,72.2,0.838,
-1.57,-2.93,63.5,0.991,-2.37,-1.28,63,0.954,-2.39,-1.49,63.8,0.924,-1.66,-0.46,72.1,0.835,
-1.49,-2.79,63.4,0.993,-2.31,-1.23,63,0.956,-2.39,-1.48,63.7,0.926,-1.64,-0.45,72.3,0.835,
-1.38,-2.8,63.7,0.993,-2.28,-1.21,63,0.958,-2.42,-1.48,63.7,0.926,-1.65,-0.44,72.1,0.838,
-1.46,-2.69,63.2,0.994,-2.31,-1.19,62.9,0.956,-2.42,-1.47,63.7,0.927,-1.67,-0.44,72.2,0.837,
-1.35,-2.76,63.8,0.994,-2.27,-1.17,63,0.958,-2.4,-1.44,63.7,0.927,-1.61,-0.43,72.5,0.843,
-1.37,-2.71,63.5,0.996,-2.23,-1.13,63,0.96,-2.39,-1.42,63.7,0.929,-1.61,-0.38,72.1,0.842,
-1.37,-2.68,63.5,0.995,-2.17,-1.06,63,0.964,-2.36,-1.4,63.8,0.928,-1.55,-0.33,72.3,0.847,
-1.4,-2.64,63.2,0.994,-2.15,-1.03,63,0.965,-2.38,-1.4,63.7,0.926,-1.55,-0.33,72.2,0.846,
-1.28,-2.68,63.6,0.996,-2.14,-1.02,62.9,0.966,-2.36,-1.39,63.7,0.927,-1.53,-0.32,72.3,0.846,
-1.33,-2.6,63.4,0.998,-2.13,-1,63,0.966,-2.37,-1.38,63.7,0.926,-1.53,-0.3,72.2,0.845,
-1.36,-2.65,63.4,0.992,-2.12,-0.96,62.9,0.969,-2.37,-1.38,63.7,0.926,-1.5,-0.28,72.3,0.846,
-1.27,-2.6,63.5,0.995,-2.07,-0.95,63,0.969,-2.38,-1.37,63.7,0.927,-1.46,-0.25,72.3,0.845,
-1.21,-2.61,63.7,0.995,-2.05,-0.92,63.1,0.971,-2.36,-1.36,63.7,0.927,-1.44,-0.23,72.3,0.846,
-1.21,-2.64,63.9,0.994,-2.03,-0.88,63,0.973,-2.36,-1.32,63.6,0.926,-1.43,-0.2,72.3,0.848,
-1.28,-2.62,63.6,0.995,-1.99,-0.84,63,0.976,-2.34,-1.31,63.7,0.927,-1.37,-0.15,72,0.852,
-1.32,-2.64,63.5,0.996,-1.97,-0.81,62.9,0.976,-2.36,-1.3,63.7,0.926,-1.29,-0.05,72.2,0.857,
-1.25,-2.65,63.8,0.995,-1.9,-0.76,63,0.977,-2.35,-1.27,63.6,0.926,-1.18,0.03,72.2,0.86,
-1.13,-2.56,63.8,0.997,-1.82,-0.68,63,0.981,-2.31,-1.24,63.6,0.929,-1.13,0.1,72.1,0.865,
-1.18,-2.61,63.7,0.996,-1.77,-0.65,63,0.982,-2.33,-1.27,63.7,0.927,-1.06,0.16,72.2,0.87,
-1.15,-2.65,63.9,0.994,-1.77,-0.62,63,0.985,-2.34,-1.28,63.8,0.927,-1.03,0.18,72.2,0.874,
-1.21,-2.62,63.7,0.994,-1.78,-0.61,62.9,0.984,-2.34,-1.25,63.7,0.927,-0.99,0.24,72.1,0.876,
-1.31,-2.63,63.4,0.997,-1.8,-0.62,62.8,0.985,-2.33,-1.25,63.7,0.925,-0.91,0.29,72.2,0.878,
-1.34,-2.77,63.8,0.995,-1.83,-0.69,63,0.982,-2.35,-1.26,63.6,0.922,-0.92,0.3,72.1,0.876,
-1.42,-2.73,63.5,0.999,-1.86,-0.67,62.8,0.983,-2.33,-1.24,63.7,0.921,-0.87,0.35,72,0.879,
-1.43,-2.76,63.5,0.996,-1.82,-0.66,62.9,0.986,-2.25,-1.2,63.8,0.924,-0.59,0.61,71.9,0.893,
-1.38,-2.7,63.5,1,-1.79,-0.64,63,0.985,-2.28,-1.2,63.6,0.923,-0.68,0.5,72.1,0.885,
-1.43,-2.72,63.5,0.999,-1.83,-0.64,62.9,0.986,-2.29,-1.2,63.6,0.917,-0.33,0.82,72,0.903,
-1.35,-2.68,63.6,0.999,-1.82,-0.65,63,0.987,-2.36,-1.27,63.7,0.914,-0.59,0.62,71.9,0.885,
-1.36,-2.63,63.4,1,-1.77,-0.59,62.9,0.987,-2.4,-1.31,63.6,0.915,-1.1,0.16,72.1,0.846,
-1.32,-2.65,63.6,1.003,-1.73,-0.56,63,0.988,-2.36,-1.28,63.7,0.914,-0.97,0.27,72.1,0.854,
-1.35,-2.66,63.6,0.998,-1.75,-0.53,62.8,0.989,-2.38,-1.28,63.7,0.91,-1.07,0.18,72.1,0.854,
-1.34,-2.66,63.6,1.001,-1.72,-0.54,62.9,0.989,-2.37,-1.29,63.6,0.909,-1.05,0.18,72.3,0.852,
-1.34,-2.69,63.7,1.002,-1.72,-0.54,63,0.988,-2.42,-1.33,63.6,0.907,-0.99,0.26,72.1,0.85,
-1.37,-2.68,63.6,1,-1.76,-0.55,62.9,0.988,-2.52,-1.4,63.5,0.902,-1.1,0.18,72.2,0.844,
-1.35,-2.61,63.5,1,-1.79,-0.56,62.8,0.989,-2.83,-1.66,63.5,0.897,-1.97,-0.58,72.2,0.836,
-1.28,-2.61,63.6,1.001,-1.82,-0.58,62.7,0.986,-2.98,-1.81,63.4,0.903,-2.01,-0.56,71.7,0.859,
-1.18,-2.52,63.6,1.003,-2.02,-0.72,62.8,0.988,-3.18,-1.96,63.4,0.903,-2.68,-1.11,71.3,0.876,
-1.14,-2.26,63,1.011,-2.09,-0.73,62.7,0.988,-3.38,-2.11,63.2,0.897,-1.91,-0.44,71.4,0.88,
-1,-2.18,63,1.009,-1.98,-0.66,62.8,0.989,-3.47,-2.23,63.4,0.9,-2.49,-0.94,71.3,0.891,
-1.04,-2.11,62.9,1.012,-1.98,-0.67,62.8,0.99,-3.75,-2.48,63.5,0.908,-2.48,-0.92,71.2,0.909,
-1.11,-2.13,62.8,1.012,-2.01,-0.69,62.8,0.987,-3.72,-2.44,63.3,0.91,-2.06,-0.53,71.1,0.923,
-0.89,-2.19,63.6,1.009,-1.97,-0.63,62.7,0.987,-3.53,-2.3,63.3,0.916,-1.89,-0.41,71.2,0.917,
-0.85,-1.98,63.1,1.005,-2.03,-0.7,62.8,0.984,-3.62,-2.37,63.3,0.918,-2.15,-0.64,71.2,0.902,
-0.59,-1.94,63.8,1.007,-2.01,-0.68,62.8,0.979,-3.57,-2.34,63.3,0.924,-2.34,-0.8,71.3,0.906,
-0.67,-1.86,63.4,0.997,-1.88,-0.57,62.9,0.981,-3.55,-2.33,63.2,0.929,-2.32,-0.8,71.4,0.923,
-0.62,-2.01,64,0.996,-2.19,-0.82,62.6,0.972,-3.57,-2.39,63.4,0.93,-2.36,-0.83,71.1,0.919,
-0.97,-2.16,63.6,0.997,-2.44,-1.04,62.7,0.969,-3.65,-2.43,63.2,0.923,-2.37,-0.85,71.4,0.907,
-1.39,-2.51,63.5,0.992,-2.57,-1.16,62.9,0.969,-3.68,-2.45,63.2,0.922,-2.34,-0.83,71.5,0.9,
-1.57,-2.67,63.4,0.989,-2.63,-1.21,62.7,0.967,-3.68,-2.46,63.3,0.919,-2.33,-0.83,71.6,0.896,
-1.59,-2.76,63.7,0.989,-2.65,-1.25,62.7,0.967,-3.66,-2.45,63.3,0.92,-2.33,-0.84,71.7,0.895,
-1.68,-2.86,63.8,0.986,-2.68,-1.3,62.9,0.965,-3.69,-2.47,63.4,0.92,-2.39,-0.89,71.6,0.892,
-1.73,-2.85,63.6,0.987,-2.71,-1.32,62.8,0.965,-3.74,-2.49,63.3,0.919,-2.46,-0.93,71.6,0.891,
-1.73,-2.79,63.4,0.988,-2.67,-1.3,62.9,0.966,-3.71,-2.49,63.3,0.92,-2.47,-0.95,71.6,0.889,
-1.72,-2.84,63.6,0.987,-2.68,-1.32,63,0.965,-3.74,-2.49,63.2,0.92,-2.48,-0.97,71.8,0.885,
-1.71,-2.82,63.7,0.989,-2.69,-1.31,62.9,0.965,-3.75,-2.51,63.4,0.919,-2.5,-0.96,71.7,0.884,
-1.72,-2.8,63.6,0.988,-2.66,-1.29,63,0.968,-3.75,-2.52,63.4,0.92,-2.5,-0.99,71.8,0.885,
-1.77,-2.81,63.5,0.986,-2.66,-1.31,63,0.966,-3.78,-2.54,63.4,0.919,-2.54,-1.02,71.8,0.885,
-1.77,-2.64,63,0.996,-2.68,-1.3,62.9,0.966,-3.82,-2.57,63.4,0.918,-2.6,-1.06,71.7,0.883,
-1.81,-2.52,62.5,1.001,-2.69,-1.31,62.9,0.964,-3.84,-2.59,63.4,0.92,-2.6,-1.08,71.8,0.885,
-1.91,-2.53,62.2,1.002,-2.66,-1.31,63,0.967,-3.85,-2.59,63.4,0.925,-2.48,-0.97,71.8,0.896,
-1.85,-2.58,62.6,1.003,-2.74,-1.35,62.9,0.965,-3.89,-2.61,63.3,0.927,-2.51,-0.98,71.7,0.898,
-1.99,-2.6,62.2,1,-2.78,-1.41,63,0.963,-3.91,-2.63,63.4,0.927,-2.57,-1.02,71.6,0.895,
-1.98,-2.74,62.7,0.999,-2.76,-1.39,63,0.963,-3.87,-2.61,63.5,0.927,-2.6,-1.04,71.6,0.892,
-2.12,-2.83,62.7,0.996,-2.75,-1.39,63,0.964,-3.88,-2.61,63.4,0.925,-2.65,-1.09,71.8,0.887,
-2.21,-2.87,62.6,0.996,-2.8,-1.42,63,0.96,-3.91,-2.62,63.4,0.922,-2.71,-1.13,71.7,0.884,
-2.28,-2.93,62.5,0.992,-2.83,-1.45,62.9,0.957,-3.93,-2.65,63.5,0.921,-2.76,-1.18,71.7,0.881,
-2.31,-2.96,62.5,0.994,-2.83,-1.45,62.9,0.957,-3.95,-2.68,63.5,0.92,-2.8,-1.21,71.7,0.877,
-2.3,-3.08,63,0.989,-2.81,-1.44,63,0.955,-3.96,-2.68,63.5,0.922,-2.84,-1.25,71.8,0.876,
-2.37,-3.03,62.7,0.992,-2.79,-1.43,63,0.956,-3.98,-2.72,63.5,0.921,-2.86,-1.27,71.7,0.874,
-2.39,-3.08,62.7,0.989,-2.8,-1.44,63,0.955,-4.01,-2.75,63.5,0.921,-2.86,-1.28,71.7,0.874,
-2.45,-3.14,62.8,0.987,-2.82,-1.45,62.9,0.954,-4.05,-2.77,63.4,0.92,-2.87,-1.29,71.9,0.87,
-2.48,-3.14,62.7,0.988,-2.83,-1.47,63,0.954,-4.06,-2.8,63.5,0.918,-2.85,-1.27,71.9,0.871,
-2.47,-3.13,62.6,0.99,-2.82,-1.48,63,0.953,-4.06,-2.82,63.6,0.918,-2.84,-1.25,71.8,0.871,
-2.48,-3.17,62.7,0.988,-2.84,-1.49,63,0.952,-4.08,-2.84,63.6,0.917,-2.84,-1.26,71.9,0.872,
-2.46,-3.19,62.9,0.988,-2.83,-1.49,63,0.953,-4.09,-2.84,63.6,0.917,-2.84,-1.26,71.9,0.872,
-2.45,-3.16,62.8,0.99,-2.8,-1.48,63,0.954,-4.08,-2.85,63.6,0.918,-2.81,-1.25,71.9,0.873,
-2.44,-3.24,63,0.985,-2.8,-1.48,63,0.952,-4.11,-2.87,63.6,0.917,-2.84,-1.25,71.8,0.872,
-2.49,-3.22,62.9,0.985,-2.81,-1.48,63.1,0.952,-4.15,-2.88,63.5,0.916,-2.85,-1.26,71.8,0.872,
-2.47,-3.2,62.8,0.988,-2.79,-1.48,63,0.953,-4.12,-2.89,63.6,0.917,-2.8,-1.23,71.9,0.871,
-2.46,-3.2,62.9,0.988,-2.79,-1.47,63,0.953,-4.12,-2.9,63.7,0.917,-2.77,-1.21,71.9,0.872,
-2.42,-3.18,62.9,0.988,-2.77,-1.44,62.9,0.955,-4.14,-2.9,63.5,0.917,-2.75,-1.19,71.9,0.873,
-2.38,-3.15,63,0.99,-2.75,-1.44,63.1,0.956,-4.1,-2.89,63.6,0.919,-2.72,-1.16,71.8,0.872,
-2.4,-3.13,62.9,0.989,-2.74,-1.41,63,0.957,-4.09,-2.87,63.6,0.919,-2.69,-1.14,71.9,0.871,
-2.42,-3.1,62.8,0.99,-2.73,-1.39,62.9,0.958,-4.09,-2.87,63.6,0.918,-2.69,-1.13,71.8,0.871,
-2.44,-3.09,62.7,0.989,-2.72,-1.38,63,0.959,-4.07,-2.86,63.5,0.92,-2.67,-1.13,72,0.871,
-2.34,-3.11,63,0.992,-2.73,-1.41,63,0.958,-4.03,-2.84,63.5,0.922,-2.63,-1.1,71.9,0.874,
-2.36,-3.01,62.6,0.993,-2.75,-1.41,63,0.957,-4.02,-2.83,63.6,0.922,-2.62,-1.09,71.9,0.876,
-2.27,-3.02,63,0.995,-2.76,-1.4,62.9,0.957,-4.01,-2.81,63.5,0.923,-2.61,-1.07,71.9,0.878,
-2.23,-3.01,63,0.996,-2.73,-1.41,63,0.958,-3.98,-2.8,63.5,0.925,-2.59,-1.06,71.8,0.879,
-2.26,-3.02,63,0.996,-2.76,-1.41,63,0.957,-3.99,-2.8,63.5,0.924,-2.6,-1.06,71.8,0.878,
-2.27,-3.01,63,0.994,-2.75,-1.4,63,0.958,-4.01,-2.78,63.4,0.923,-2.59,-1.06,71.9,0.879,
-2.26,-3.06,63.1,0.995,-2.76,-1.4,62.9,0.958,-3.99,-2.79,63.4,0.922,-2.6,-1.07,71.9,0.878,
-2.37,-3.03,62.8,0.996,-2.79,-1.43,63,0.956,-4,-2.79,63.4,0.921,-2.62,-1.08,71.9,0.874,
-2.34,-3.07,63,0.996,-2.8,-1.43,63,0.956,-3.99,-2.77,63.4,0.921,-2.61,-1.07,71.8,0.873,
-2.35,-3.05,62.9,0.995,-2.77,-1.41,63,0.957,-3.95,-2.75,63.4,0.923,-2.59,-1.06,71.9,0.874,
-2.33,-3.04,62.9,0.997,-2.76,-1.39,63,0.958,-3.96,-2.74,63.4,0.923,-2.59,-1.06,71.9,0.873,
-2.37,-3.04,62.8,0.995,-2.77,-1.4,63,0.958,-3.97,-2.73,63.3,0.922,-2.58,-1.04,71.9,0.874,
-2.31,-3.05,63,0.996,-2.76,-1.4,63.1,0.958,-3.93,-2.72,63.5,0.924,-2.54,-1.02,71.9,0.873,
-2.29,-2.96,62.7,1,-2.79,-1.39,62.9,0.957,-3.94,-2.71,63.2,0.922,-2.51,-0.99,71.9,0.874,
-2.26,-2.97,62.9,0.998,-2.78,-1.4,63.1,0.959,-3.93,-2.69,63.2,0.923,-2.5,-0.96,71.8,0.875,
-2.21,-2.94,62.9,1.001,-2.76,-1.38,63,0.961,-3.89,-2.69,63.4,0.924,-2.47,-0.94,71.9,0.876,
-2.18,-2.94,63.1,1.001,-2.76,-1.36,62.9,0.961,-3.9,-2.67,63.2,0.924,-2.47,-0.94,71.9,0.876,
-2.21,-2.91,62.9,0.999,-2.74,-1.35,63,0.961,-3.87,-2.68,63.4,0.924,-2.47,-0.95,72,0.876,
-2.16,-2.92,63,1,-2.7,-1.32,63,0.963,-3.86,-2.66,63.3,0.925,-2.46,-0.95,72,0.877,
-2.16,-2.88,62.9,1.001,-2.67,-1.27,62.9,0.965,-3.85,-2.69,63.5,0.924,-2.48,-0.96,71.9,0.878,
-2.2,-2.91,62.9,1,-2.68,-1.29,63,0.963,-3.88,-2.7,63.5,0.924,-2.51,-0.99,72.1,0.875,
-2.21,-2.86,62.7,1.001,-2.69,-1.3,63,0.965,-3.86,-2.69,63.5,0.924,-2.48,-0.95,72,0.877,
-2.14,-2.82,62.8,1.002,-2.66,-1.28,63,0.963,-3.82,-2.68,63.6,0.925,-2.44,-0.92,72,0.88,
-2.15,-2.85,62.9,1,-2.67,-1.27,63,0.963,-3.81,-2.67,63.6,0.925,-2.45,-0.91,71.8,0.879,
-2.16,-2.89,62.9,0.999,-2.64,-1.26,63.1,0.965,-3.81,-2.67,63.6,0.925,-2.45,-0.92,72,0.878,
-2.12,-2.93,63.2,0.997,-2.59,-1.22,63.1,0.967,-3.78,-2.68,63.7,0.926,-2.42,-0.92,72,0.879,
-2.15,-2.78,62.7,1.002,-2.56,-1.17,62.9,0.968,-3.79,-2.7,63.8,0.925,-2.44,-0.93,71.9,0.881,
-2.18,-2.89,62.9,0.998,-2.54,-1.17,63,0.967,-3.8,-2.71,63.8,0.925,-2.46,-0.96,72,0.878,
-2.23,-2.97,63,0.996,-2.57,-1.2,63.1,0.967,-3.79,-2.74,64,0.924,-2.46,-0.97,72,0.877,
-2.24,-2.97,63,0.995,-2.56,-1.2,63,0.967,-3.77,-2.75,64.1,0.924,-2.43,-0.96,72.1,0.879,
-2.28,-2.97,62.9,0.993,-2.55,-1.19,63,0.968,-3.76,-2.73,64.1,0.924,-2.43,-0.94,72.1,0.878,
-2.4,-3.01,62.8,0.993,-2.59,-1.21,63,0.966,-3.76,-2.74,64.1,0.923,-2.44,-0.95,72.1,0.878,
-2.39,-3.09,63,0.994,-2.66,-1.26,62.9,0.964,-3.73,-2.74,64.1,0.924,-2.38,-0.91,72.2,0.878,
-2.41,-3.01,62.7,0.995,-2.68,-1.28,63,0.963,-3.71,-2.72,64.1,0.925,-2.32,-0.87,72.1,0.878,
-2.39,-2.96,62.6,0.998,-2.71,-1.28,62.8,0.965,-3.71,-2.71,64.1,0.925,-2.29,-0.83,72.1,0.878,
-2.31,-3.03,63.1,0.996,-2.73,-1.31,62.9,0.962,-3.69,-2.7,64.2,0.926,-2.24,-0.79,72.1,0.877,
-2.26,-2.92,62.8,1.001,-2.74,-1.33,62.9,0.963,-3.67,-2.69,64.1,0.926,-2.21,-0.77,72.1,0.879,
-2.25,-2.88,62.7,1,-2.75,-1.34,63,0.963,-3.66,-2.67,64.1,0.926,-2.19,-0.76,72.1,0.879,
-2.23,-2.86,62.8,1.001,-2.77,-1.34,63,0.962,-3.65,-2.65,64.1,0.925,-2.17,-0.74,72.3,0.88,
-2.24,-2.84,62.6,0.997,-2.75,-1.32,62.9,0.963,-3.6,-2.61,64.1,0.927,-2.14,-0.72,72.2,0.881,
-2.12,-2.81,62.8,1.002,-2.73,-1.3,62.9,0.964,-3.59,-2.59,64,0.927,-2.13,-0.7,72.2,0.881,
-2.02,-2.76,62.9,1.003,-2.72,-1.28,62.9,0.964,-3.59,-2.58,64,0.926,-2.13,-0.71,72.2,0.884,
-1.91,-2.66,63,1.008,-2.66,-1.24,62.9,0.966,-3.55,-2.54,64,0.926,-2.15,-0.71,72.1,0.888,
-1.81,-2.64,63,1.009,-2.59,-1.21,63.1,0.967,-3.48,-2.49,64,0.928,-2.13,-0.71,72.1,0.887,
-1.78,-2.56,62.9,1.011,-2.53,-1.14,63,0.969,-3.47,-2.46,63.9,0.928,-2.14,-0.71,72.2,0.888,
-1.71,-2.49,62.9,1.013,-2.47,-1.08,63,0.971,-3.47,-2.44,63.8,0.929,-2.12,-0.69,72.2,0.885,
-1.66,-2.43,62.8,1.014,-2.43,-1.03,62.9,0.974,-3.45,-2.43,63.8,0.931,-2.07,-0.66,72.3,0.887,
-1.59,-2.46,63,1.013,-2.41,-1.03,63,0.975,-3.43,-2.4,63.8,0.931,-2.07,-0.66,72.3,0.888,
-1.66,-2.39,62.8,1.013,-2.4,-1.01,62.9,0.976,-3.45,-2.4,63.7,0.931,-2.1,-0.69,72.3,0.888,
-1.66,-2.39,62.8,1.011,-2.37,-0.99,63,0.978,-3.46,-2.39,63.7,0.932,-2.13,-0.71,72.2,0.887,
-1.65,-2.47,63,1.011,-2.3,-0.95,63,0.98,-3.43,-2.38,63.7,0.932,-2.05,-0.67,72.4,0.888,
-1.77,-2.5,62.9,1.008,-2.27,-0.92,63,0.98,-3.47,-2.39,63.7,0.93,-2.04,-0.66,72.4,0.883,
-1.63,-2.51,63.3,1.01,-2.26,-0.9,63,0.982,-3.5,-2.4,63.7,0.929,-2.06,-0.65,72.2,0.885,
-1.67,-2.45,63,1.008,-2.24,-0.9,63,0.98,-3.48,-2.39,63.7,0.93,-2.04,-0.65,72.5,0.887,
-1.7,-2.47,62.9,1.007,-2.24,-0.91,63,0.981,-3.47,-2.38,63.7,0.929,-2.03,-0.64,72.3,0.886,
-1.68,-2.48,63.1,1.007,-2.27,-0.93,63,0.979,-3.47,-2.35,63.6,0.928,-2.02,-0.62,72.4,0.885,
-1.67,-2.43,62.9,1.007,-2.25,-0.9,63,0.982,-3.45,-2.34,63.7,0.929,-1.98,-0.59,72.4,0.887,
-1.61,-2.41,63,1.009,-2.22,-0.89,62.9,0.982,-3.41,-2.32,63.8,0.93,-1.95,-0.56,72.3,0.889,
-1.63,-2.42,63,1.009,-2.24,-0.91,62.9,0.98,-3.42,-2.32,63.7,0.929,-1.96,-0.58,72.5,0.887,
-1.56,-2.39,63.1,1.009,-2.22,-0.91,63.2,0.983,-3.42,-2.3,63.7,0.928,-1.93,-0.55,72.5,0.888,
-1.59,-2.3,62.8,1.009,-2.22,-0.89,63,0.983,-3.39,-2.29,63.6,0.93,-1.92,-0.53,72.5,0.89,
-1.55,-2.3,62.8,1.011,-2.2,-0.86,62.9,0.983,-3.38,-2.28,63.7,0.931,-1.89,-0.52,72.5,0.89,
-1.56,-2.33,62.9,1.011,-2.18,-0.86,63,0.984,-3.39,-2.28,63.7,0.93,-1.91,-0.51,72.3,0.888,
-1.5,-2.29,63,1.011,-2.14,-0.82,62.9,0.986,-3.39,-2.27,63.7,0.931,-1.88,-0.49,72.5,0.89,
-1.52,-2.29,62.9,1.01,-2.09,-0.8,63.1,0.986,-3.39,-2.28,63.7,0.932,-1.88,-0.5,72.5,0.89,
-1.51,-2.39,63.3,1.008,-2.12,-0.81,63,0.984,-3.37,-2.26,63.7,0.933,-1.83,-0.46,72.5,0.889,
-1.59,-2.36,62.9,1.009,-2.14,-0.82,63,0.984,-3.4,-2.29,63.8,0.931,-1.84,-0.45,72.4,0.889,
-1.62,-2.37,62.8,1.007,-2.15,-0.85,63.1,0.985,-3.39,-2.27,63.7,0.931,-1.79,-0.42,72.5,0.889,
-1.56,-2.42,63.1,1.007,-2.2,-0.88,63,0.982,-3.38,-2.27,63.7,0.932,-1.79,-0.42,72.5,0.889,
-1.51,-2.36,63.1,1.009,-2.21,-0.9,63,0.981,-3.4,-2.27,63.7,0.931,-1.79,-0.41,72.5,0.888,
-1.47,-2.36,63.2,1.009,-2.24,-0.91,63,0.981,-3.4,-2.26,63.6,0.931,-1.78,-0.41,72.6,0.888,
-1.43,-2.29,63.1,1.011,-2.18,-0.89,63.1,0.984,-3.35,-2.24,63.7,0.933,-1.75,-0.39,72.6,0.887,
-1.41,-2.3,63.2,1.011,-2.18,-0.86,63,0.985,-3.35,-2.22,63.7,0.933,-1.76,-0.37,72.6,0.888,
-1.5,-2.3,62.9,1.01,-2.18,-0.86,63,0.985,-3.36,-2.23,63.7,0.931,-1.81,-0.41,72.4,0.888,
-1.41,-2.32,63.3,1.01,-2.15,-0.85,63.1,0.984,-3.36,-2.24,63.8,0.933,-1.86,-0.46,72.3,0.89,
-1.39,-2.24,63,1.01,-2.14,-0.82,62.9,0.981,-3.37,-2.25,63.8,0.932,-1.88,-0.48,72.5,0.889,
-1.2,-2.08,63.1,1.012,-2.03,-0.75,63,0.981,-3.28,-2.15,63.6,0.933,-1.94,-0.52,72.5,0.889,
-1.02,-1.94,63.1,1.017,-2.01,-0.76,63,0.978,-3.14,-2.07,63.8,0.936,-1.95,-0.54,72.5,0.893,
-1.02,-1.95,63.1,1.016,-2.03,-0.77,63,0.978,-3.14,-2.06,63.8,0.937,-2.02,-0.59,72.4,0.89,
-1.05,-1.98,63.2,1.016,-2.04,-0.78,63,0.977,-3.14,-2.06,63.7,0.938,-2.05,-0.62,72.5,0.89,
-1.04,-1.94,63,1.017,-2.01,-0.76,63,0.978,-3.12,-2.06,63.8,0.939,-2.05,-0.62,72.3,0.889,
-1,-1.98,63.2,1.017,-1.97,-0.75,63.1,0.979,-3.11,-2.05,63.7,0.938,-2.04,-0.63,72.4,0.89,
-1.06,-2.01,63.1,1.016,-2.01,-0.78,62.9,0.978,-3.16,-2.08,63.7,0.936,-2.09,-0.67,72.4,0.888,
-1.03,-2.05,63.4,1.015,-2,-0.78,63.1,0.98,-3.14,-2.06,63.6,0.937,-2.08,-0.66,72.3,0.889,
-0.99,-2.01,63.3,1.016,-1.98,-0.78,63.1,0.981,-3.13,-2.07,63.7,0.939,-2.12,-0.7,72.3,0.892,
-1.08,-2.06,63.2,1.015,-2.08,-0.86,63,0.979,-3.25,-2.18,63.7,0.939,-2.26,-0.82,72.2,0.892,
-1.12,-2.14,63.4,1.013,-2.18,-0.95,63.1,0.978,-3.35,-2.25,63.7,0.938,-2.33,-0.89,72.3,0.891,
-1.07,-2.12,63.3,1.015,-2.17,-0.97,63.1,0.976,-3.32,-2.27,63.8,0.939,-2.34,-0.9,72.2,0.892,
-1,-2.07,63.3,1.015,-2.08,-0.9,62.9,0.978,-3.25,-2.23,63.9,0.936,-2.29,-0.86,72.1,0.893,
-1.08,-2.1,63.1,1.014,-2.14,-0.95,63,0.975,-3.31,-2.27,63.8,0.938,-2.36,-0.94,72.2,0.891,
-1.13,-2.19,63.3,1.012,-2.2,-1.02,63,0.977,-3.34,-2.31,63.9,0.939,-2.34,-0.93,72.2,0.893,
-1.12,-2.22,63.3,1.011,-2.22,-1.07,63.1,0.974,-3.36,-2.35,64,0.938,-2.34,-0.95,72.2,0.893,
-1.13,-2.26,63.4,1.011,-2.23,-1.07,63.1,0.976,-3.37,-2.37,64,0.937,-2.34,-0.95,72.2,0.893,
-1.13,-2.26,63.4,1.011,-2.25,-1.08,62.9,0.975,-3.38,-2.38,64,0.935,-2.36,-0.97,72.2,0.893,
-1.11,-2.24,63.3,1.012,-2.21,-1.08,63.1,0.975,-3.34,-2.37,64,0.936,-2.34,-0.98,72.2,0.894,
-1.11,-2.24,63.3,1.012,-2.21,-1.07,62.9,0.975,-3.33,-2.36,64,0.935,-2.32,-0.97,72.4,0.895,
-1.1,-2.25,63.4,1.012,-2.19,-1.07,63.1,0.975,-3.31,-2.34,64,0.934,-2.3,-0.95,72.2,0.894,
-1.07,-2.22,63.4,1.014,-2.17,-1.04,63,0.978,-3.27,-2.3,64,0.936,-2.25,-0.91,72.2,0.894,
-1.04,-2.2,63.4,1.014,-2.12,-1.03,63.1,0.978,-3.23,-2.29,64,0.936,-2.21,-0.89,72.3,0.896,
-1.03,-2.19,63.4,1.014,-2.13,-1.04,63.1,0.978,-3.25,-2.29,64,0.936,-2.22,-0.9,72.2,0.898,
-1.07,-2.19,63.2,1.012,-2.17,-1.07,63.1,0.977,-3.27,-2.31,64,0.936,-2.27,-0.95,72.2,0.898,
-1.02,-2.25,63.5,1.011,-2.17,-1.11,63,0.974,-3.25,-2.34,64.1,0.937,-2.28,-0.99,72.2,0.897,
-1.04,-2.21,63.3,1.013,-2.18,-1.12,63.1,0.973,-3.27,-2.36,64.1,0.937,-2.3,-1.02,72.1,0.899,
-1.05,-2.23,63.3,1.012,-2.18,-1.12,63.1,0.975,-3.29,-2.36,64.1,0.936,-2.3,-1.04,72.3,0.899,
-1,-2.28,63.5,1.009,-2.14,-1.12,63.1,0.975,-3.26,-2.38,64.2,0.938,-2.29,-1.05,72.1,0.899,
-1,-2.27,63.3,1.011,-2.15,-1.15,63.1,0.975,-3.29,-2.41,64.2,0.935,-2.32,-1.09,72.2,0.898,
-0.99,-2.3,63.4,1.01,-2.18,-1.18,63.1,0.973,-3.33,-2.44,64.2,0.936,-2.4,-1.15,72,0.897,
-0.95,-2.27,63.3,1.011,-2.16,-1.17,63,0.973,-3.33,-2.45,64.2,0.937,-2.42,-1.18,72.1,0.899,
-0.92,-2.24,63.2,1.011,-2.13,-1.15,63,0.975,-3.33,-2.47,64.2,0.938,-2.44,-1.22,72.1,0.898,
-0.96,-2.31,63.4,1.008,-2.17,-1.19,63,0.972,-3.36,-2.48,64.2,0.936,-2.45,-1.22,72,0.897,
-0.97,-2.32,63.4,1.008,-2.19,-1.21,63.1,0.972,-3.36,-2.47,64.2,0.936,-2.44,-1.21,72,0.895,
-0.98,-2.33,63.3,1.007,-2.16,-1.22,63.2,0.972,-3.33,-2.44,64.1,0.937,-2.4,-1.19,72.2,0.896,
-0.99,-2.32,63.2,1.009,-2.19,-1.22,63.1,0.97,-3.34,-2.42,64,0.936,-2.39,-1.18,72.1,0.896,
-0.96,-2.35,63.5,1.009,-2.19,-1.19,63,0.972,-3.33,-2.41,64.1,0.935,-2.37,-1.15,72,0.897,
-0.95,-2.33,63.4,1.009,-2.16,-1.2,63.1,0.972,-3.3,-2.4,64.1,0.937,-2.34,-1.15,72.1,0.898,
-0.97,-2.33,63.3,1.009,-2.17,-1.22,63.1,0.972,-3.32,-2.42,64.1,0.937,-2.35,-1.15,72,0.899,
-1,-2.38,63.4,1.008,-2.23,-1.26,63.1,0.97,-3.36,-2.45,64.1,0.936,-2.37,-1.19,72.1,0.896,
-1.06,-2.41,63.2,1.008,-2.27,-1.31,63.2,0.968,-3.38,-2.49,64.2,0.936,-2.37,-1.2,72.1,0.895,
-1.07,-2.49,63.4,1.006,-2.31,-1.37,63.3,0.966,-3.4,-2.53,64.2,0.935,-2.38,-1.21,72.1,0.895,
-1.09,-2.49,63.2,1.006,-2.33,-1.37,63.1,0.964,-3.42,-2.53,64.1,0.934,-2.39,-1.19,72,0.894,
-1.08,-2.51,63.4,1.006,-2.33,-1.35,63.1,0.967,-3.43,-2.51,64,0.933,-2.38,-1.19,72.1,0.895,
-1.05,-2.52,63.4,1.005,-2.29,-1.34,63.1,0.968,-3.39,-2.51,64.2,0.934,-2.36,-1.18,72.2,0.894,
-1.05,-2.54,63.5,1.005,-2.3,-1.35,63.2,0.967,-3.41,-2.51,64.1,0.933,-2.37,-1.19,72.2,0.894,
-1.08,-2.54,63.5,1.005,-2.34,-1.35,63,0.966,-3.43,-2.52,64.1,0.932,-2.4,-1.18,72.1,0.893,
-1.09,-2.56,63.4,1.006,-2.35,-1.37,63.1,0.965,-3.45,-2.53,64.1,0.932,-2.41,-1.19,72.2,0.894,
-1.07,-2.56,63.5,1.006,-2.33,-1.37,63.2,0.966,-3.44,-2.53,64,0.933,-2.38,-1.19,72.2,0.893,
-1.05,-2.55,63.5,1.006,-2.32,-1.34,63.1,0.966,-3.44,-2.51,64.1,0.932,-2.39,-1.17,72.3,0.894,
-1.02,-2.52,63.6,1.006,-2.3,-1.31,63.1,0.967,-3.43,-2.49,64.1,0.932,-2.37,-1.14,72.2,0.893,
-0.98,-2.48,63.6,1.008,-2.25,-1.26,63.1,0.97,-3.38,-2.45,64,0.934,-2.34,-1.1,72.1,0.894,
-0.99,-2.45,63.4,1.008,-2.25,-1.25,63.1,0.97,-3.38,-2.45,64.1,0.932,-2.32,-1.1,72.3,0.895,
-1.01,-2.46,63.4,1.009,-2.29,-1.25,63,0.97,-3.39,-2.45,64.1,0.932,-2.36,-1.11,72.3,0.895,
-1.09,-2.49,63.4,1.008,-2.36,-1.3,63,0.967,-3.43,-2.46,64,0.932,-2.43,-1.16,72.3,0.891,
-1.08,-2.49,63.4,1.008,-2.33,-1.29,63,0.969,-3.42,-2.47,64.1,0.932,-2.43,-1.16,72.2,0.893,
-1.08,-2.49,63.4,1.007,-2.36,-1.27,62.9,0.968,-3.45,-2.48,64.1,0.932,-2.46,-1.18,72.3,0.893,
-1.1,-2.51,63.5,1.006,-2.37,-1.31,63,0.967,-3.48,-2.49,64,0.932,-2.49,-1.19,72.2,0.891,
-1.09,-2.52,63.5,1.006,-2.37,-1.32,63.1,0.966,-3.48,-2.51,64.1,0.932,-2.5,-1.21,72.2,0.89,
-1.1,-2.54,63.5,1.006,-2.38,-1.33,63.1,0.965,-3.5,-2.51,64.1,0.932,-2.52,-1.21,72.3,0.89,
-1.16,-2.54,63.3,1.005,-2.39,-1.35,63.2,0.966,-3.53,-2.51,64,0.931,-2.53,-1.22,72.3,0.889,
-1.16,-2.57,63.5,1.005,-2.42,-1.35,63,0.965,-3.55,-2.51,63.9,0.93,-2.53,-1.22,72.4,0.889,
-1.14,-2.57,63.4,1.005,-2.4,-1.34,63,0.966,-3.52,-2.52,64.1,0.93,-2.54,-1.2,72.2,0.889,
-1.15,-2.54,63.3,1.006,-2.42,-1.34,63.1,0.966,-3.54,-2.51,63.9,0.93,-2.53,-1.21,72.2,0.89,
-1.13,-2.6,63.7,1.004,-2.42,-1.35,63.2,0.964,-3.55,-2.5,63.9,0.93,-2.54,-1.2,72.2,0.89,
-1.15,-2.56,63.5,1.006,-2.42,-1.34,63.3,0.966,-3.54,-2.5,63.9,0.931,-2.54,-1.19,72.3,0.889,
-1.12,-2.55,63.5,1.006,-2.42,-1.33,63.1,0.967,-3.52,-2.49,64,0.931,-2.53,-1.18,72.3,0.888,
-1.14,-2.53,63.5,1.007,-2.44,-1.32,63,0.966,-3.52,-2.47,64,0.931,-2.52,-1.17,72.3,0.889,
-1.15,-2.5,63.4,1.008,-2.44,-1.3,63,0.967,-3.52,-2.45,63.9,0.931,-2.51,-1.16,72.4,0.89,
-1.08,-2.48,63.5,1.01,-2.4,-1.29,63,0.967,-3.48,-2.44,64,0.933,-2.51,-1.15,72.2,0.891,
-1.05,-2.43,63.4,1.011,-2.35,-1.26,63.1,0.966,-3.45,-2.4,63.9,0.931,-2.48,-1.13,72.4,0.892,
-0.98,-2.35,63.3,1.011,-2.24,-1.16,63.2,0.969,-3.37,-2.33,64,0.932,-2.44,-1.08,72.3,0.892,
-0.88,-2.31,63.5,1.012,-2.16,-1.1,63.1,0.969,-3.34,-2.28,63.9,0.935,-2.42,-1.04,72.2,0.893,
-0.86,-2.28,63.4,1.013,-2.11,-1.07,63.1,0.97,-3.29,-2.27,64,0.937,-2.39,-1.03,72.3,0.895,
-0.83,-2.28,63.5,1.012,-2.14,-1.08,63.1,0.97,-3.27,-2.25,64,0.937,-2.42,-1.04,72.3,0.894,
-0.88,-2.29,63.4,1.007,-2.21,-1.17,63.2,0.966,-3.23,-2.19,64,0.937,-2.44,-1.06,72.3,0.895,
-0.95,-2.43,63.5,1.005,-2.21,-1.17,63.2,0.964,-3.18,-2.16,64,0.936,-2.43,-1.05,72.3,0.897,
-1.03,-2.49,63.5,1.004,-2.24,-1.2,63.2,0.963,-3.18,-2.16,64.1,0.935,-2.48,-1.09,72.2,0.893,
-1.06,-2.53,63.5,1.002,-2.26,-1.21,63.2,0.961,-3.2,-2.16,64,0.935,-2.53,-1.13,72.3,0.892,
-1.06,-2.53,63.5,1.003,-2.26,-1.22,63.2,0.961,-3.19,-2.17,64.1,0.935,-2.56,-1.15,72.2,0.89,
-1.04,-2.55,63.6,1.002,-2.25,-1.21,63.2,0.96,-3.17,-2.17,64.2,0.936,-2.57,-1.17,72.3,0.888,
-1.06,-2.54,63.5,1.003,-2.25,-1.21,63.3,0.96,-3.2,-2.17,64,0.935,-2.58,-1.2,72.4,0.888,
-1.05,-2.57,63.6,1.002,-2.26,-1.19,63.1,0.961,-3.2,-2.18,64.1,0.935,-2.61,-1.2,72.3,0.887,
-1.04,-2.54,63.6,1.003,-2.22,-1.2,63.3,0.96,-3.17,-2.16,64.1,0.937,-2.6,-1.21,72.4,0.888,
-1.06,-2.56,63.5,1.003,-2.23,-1.2,63.2,0.959,-3.17,-2.18,64.2,0.936,-2.61,-1.22,72.5,0.888,
-1.18,-2.68,63.6,1.001,-2.3,-1.23,63.1,0.96,-3.21,-2.2,64.2,0.935,-2.6,-1.21,72.5,0.888,
-1.18,-2.69,63.6,1.002,-2.3,-1.24,63.1,0.961,-3.23,-2.23,64.2,0.933,-2.59,-1.19,72.5,0.889,
-1.24,-2.78,63.7,1.002,-2.37,-1.31,63.2,0.96,-3.32,-2.31,64.2,0.932,-2.58,-1.19,72.5,0.887,
-1.23,-2.72,63.4,1.002,-2.43,-1.35,63.2,0.96,-3.41,-2.37,64.1,0.931,-2.63,-1.21,72.5,0.888,
-1.2,-2.7,63.5,1.002,-2.48,-1.39,63.2,0.959,-3.47,-2.44,64.2,0.931,-2.66,-1.24,72.4,0.885,
-1.11,-2.69,63.6,1.003,-2.54,-1.46,63.2,0.957,-3.59,-2.56,64.2,0.932,-2.71,-1.29,72.5,0.883,
-1.15,-2.72,63.6,1.002,-2.58,-1.49,63.2,0.955,-3.62,-2.59,64.3,0.932,-2.73,-1.31,72.5,0.881,
-1.18,-2.71,63.4,1.002,-2.6,-1.52,63.2,0.953,-3.67,-2.63,64.2,0.93,-2.81,-1.36,72.4,0.873,
-1.11,-2.72,63.6,1.003,-2.57,-1.49,63.2,0.954,-3.64,-2.62,64.2,0.933,-2.8,-1.38,72.6,0.875,
-1.1,-2.73,63.6,1.003,-2.54,-1.49,63.3,0.953,-3.63,-2.63,64.3,0.932,-2.8,-1.39,72.6,0.875,
-1.1,-2.73,63.6,1.003,-2.55,-1.5,63.1,0.953,-3.64,-2.64,64.3,0.931,-2.82,-1.4,72.6,0.871,
-1.11,-2.76,63.7,1.002,-2.55,-1.5,63.2,0.953,-3.62,-2.63,64.2,0.931,-2.82,-1.4,72.6,0.87,
-1.1,-2.76,63.6,1.002,-2.52,-1.5,63.3,0.953,-3.58,-2.61,64.2,0.932,-2.79,-1.4,72.7,0.871,
-1.1,-2.78,63.7,1.001,-2.53,-1.5,63.2,0.953,-3.58,-2.62,64.3,0.932,-2.8,-1.4,72.7,0.868,
-1.11,-2.79,63.8,1.002,-2.55,-1.51,63.2,0.952,-3.57,-2.62,64.3,0.931,-2.79,-1.4,72.7,0.868,
-1.07,-2.78,63.8,1.003,-2.52,-1.51,63.3,0.952,-3.52,-2.6,64.4,0.933,-2.75,-1.37,72.6,0.868,
-1.1,-2.79,63.7,1.002,-2.53,-1.53,63.2,0.953,-3.53,-2.6,64.3,0.933,-2.73,-1.36,72.6,0.87,
-1.12,-2.8,63.7,1.001,-2.54,-1.54,63.4,0.953,-3.54,-2.6,64.3,0.933,-2.73,-1.36,72.6,0.868,
-1.09,-2.79,63.7,1.001,-2.54,-1.54,63.2,0.952,-3.55,-2.61,64.2,0.933,-2.71,-1.36,72.7,0.869,
-1.04,-2.77,63.6,1.002,-2.51,-1.54,63.4,0.952,-3.53,-2.62,64.3,0.933,-2.71,-1.36,72.7,0.868,
-1,-2.77,63.8,1.003,-2.48,-1.5,63.2,0.954,-3.53,-2.61,64.3,0.934,-2.73,-1.37,72.7,0.868,
-1.03,-2.78,63.8,1.001,-2.48,-1.51,63.3,0.954,-3.57,-2.63,64.2,0.933,-2.74,-1.39,72.8,0.868,
-1.02,-2.79,63.8,1,-2.48,-1.5,63.2,0.955,-3.55,-2.64,64.3,0.933,-2.75,-1.4,72.6,0.865,
-1.08,-2.77,63.6,1,-2.5,-1.54,63.3,0.952,-3.56,-2.65,64.3,0.934,-2.75,-1.41,72.7,0.864,
-1.06,-2.78,63.6,1.001,-2.49,-1.53,63.3,0.952,-3.57,-2.65,64.3,0.933,-2.77,-1.4,72.7,0.862,
-1.05,-2.8,63.7,1,-2.48,-1.53,63.4,0.953,-3.56,-2.65,64.3,0.933,-2.75,-1.4,72.7,0.863,
-1.06,-2.81,63.8,1.001,-2.51,-1.53,63.3,0.953,-3.57,-2.66,64.3,0.933,-2.75,-1.39,72.7,0.86,
-1.09,-2.82,63.7,1,-2.51,-1.53,63.3,0.954,-3.57,-2.65,64.3,0.931,-2.73,-1.37,72.6,0.862,
-1.06,-2.78,63.7,1.002,-2.47,-1.5,63.3,0.954,-3.53,-2.61,64.3,0.931,-2.72,-1.36,72.7,0.862,
-0.92,-2.65,63.6,1.003,-2.25,-1.33,63.3,0.957,-3.33,-2.45,64.3,0.934,-2.69,-1.33,72.5,0.865,
-0.9,-2.63,63.7,1.001,-2.16,-1.26,63.3,0.959,-3.26,-2.38,64.3,0.933,-2.65,-1.3,72.6,0.866,
-0.87,-2.63,63.8,1.001,-2.15,-1.24,63.4,0.96,-3.26,-2.35,64.2,0.932,-2.64,-1.28,72.6,0.869,
-0.89,-2.66,63.7,1.001,-2.13,-1.23,63.4,0.962,-3.27,-2.37,64.3,0.928,-2.69,-1.32,72.4,0.874,
-1.12,-2.9,63.9,0.999,-2.31,-1.34,63.2,0.961,-3.4,-2.45,64.3,0.921,-2.74,-1.34,72.3,0.87,
-1.41,-3.15,63.9,0.996,-2.54,-1.52,63.2,0.959,-3.51,-2.54,64.3,0.918,-2.65,-1.25,72.3,0.87,
-1.43,-3.16,63.9,0.996,-2.58,-1.56,63.3,0.957,-3.48,-2.52,64.3,0.918,-2.59,-1.22,72.5,0.867,
-1.47,-3.14,63.6,0.995,-2.55,-1.55,63.3,0.956,-3.45,-2.5,64.4,0.918,-2.55,-1.19,72.6,0.865,
-1.18,-2.96,63.9,0.997,-2.36,-1.39,63.1,0.957,-3.34,-2.4,64.3,0.921,-2.57,-1.19,72.5,0.87,
-1.04,-2.84,63.9,0.999,-2.25,-1.32,63.4,0.957,-3.26,-2.34,64.3,0.924,-2.56,-1.19,72.5,0.873,
-1,-2.8,64,1.002,-2.24,-1.31,63.3,0.957,-3.25,-2.33,64.3,0.925,-2.57,-1.19,72.5,0.873,
-1,-2.79,63.9,1,-2.24,-1.3,63.4,0.957,-3.25,-2.32,64.3,0.925,-2.59,-1.2,72.5,0.872,
-1,-2.77,63.9,1,-2.23,-1.31,63.4,0.956,-3.23,-2.31,64.4,0.926,-2.61,-1.21,72.5,0.872,
-0.95,-2.84,64.2,0.998,-2.21,-1.29,63.4,0.958,-3.22,-2.29,64.3,0.927,-2.61,-1.21,72.5,0.873,
-0.85,-2.9,64.6,1,-2.22,-1.3,63.5,0.956,-3.24,-2.3,64.3,0.926,-2.63,-1.2,72.4,0.871,
-0.83,-2.91,64.7,1.001,-2.22,-1.28,63.3,0.956,-3.23,-2.29,64.3,0.927,-2.62,-1.2,72.4,0.872,
-0.79,-2.91,64.8,1.002,-2.18,-1.28,63.5,0.958,-3.21,-2.28,64.4,0.927,-2.6,-1.19,72.5,0.874,
-0.82,-2.91,64.7,1.003,-2.19,-1.27,63.5,0.957,-3.22,-2.27,64.3,0.928,-2.61,-1.19,72.5,0.872,
-0.91,-2.86,64.4,1.001,-2.19,-1.26,63.4,0.959,-3.22,-2.26,64.4,0.928,-2.61,-1.18,72.5,0.873,
-0.91,-2.8,64.1,1.003,-2.16,-1.25,63.5,0.959,-3.2,-2.25,64.3,0.928,-2.59,-1.16,72.4,0.877,
-0.87,-2.83,64.5,1.005,-2.16,-1.24,63.4,0.959,-3.21,-2.25,64.3,0.928,-2.6,-1.16,72.3,0.876,
-0.9,-2.85,64.4,1.003,-2.17,-1.24,63.5,0.959,-3.22,-2.27,64.5,0.927,-2.62,-1.18,72.4,0.877,
-0.94,-2.71,63.8,1.006,-2.15,-1.24,63.5,0.959,-3.21,-2.25,64.4,0.93,-2.63,-1.18,72.3,0.876,
-0.98,-2.72,63.8,1.003,-2.18,-1.25,63.4,0.959,-3.22,-2.27,64.5,0.929,-2.66,-1.2,72.3,0.875,
-1.05,-2.64,63.4,1.003,-2.18,-1.25,63.5,0.96,-3.23,-2.26,64.4,0.931,-2.7,-1.22,72.3,0.873,
-1.08,-2.57,63,1.004,-2.17,-1.25,63.5,0.958,-3.23,-2.26,64.3,0.933,-2.69,-1.22,72.3,0.875,
-1,-2.53,63.2,1.006,-2.15,-1.22,63.4,0.958,-3.27,-2.28,64.3,0.934,-2.75,-1.26,72.4,0.873,
-2.27,-3.64,63.2,0.994,-2.36,-1.4,63.5,0.951,-3.33,-2.33,64.3,0.931,-2.83,-1.33,72.4,0.866,
-3.22,-4.52,63.2,0.987,-2.44,-1.48,63.5,0.948,-3.33,-2.34,64.3,0.931,-2.87,-1.36,72.4,0.865,
-3.51,-4.85,63.2,0.984,-2.49,-1.51,63.4,0.945,-3.36,-2.36,64.3,0.932,-2.87,-1.35,72.4,0.866,
-3.84,-5.12,63.2,0.982,-2.57,-1.57,63.4,0.943,-3.39,-2.38,64.2,0.932,-2.91,-1.36,72.3,0.865,
-3.92,-5.24,63.4,0.981,-2.6,-1.6,63.4,0.941,-3.39,-2.39,64.3,0.931,-2.9,-1.37,72.4,0.866,
-3.84,-5.2,63.4,0.985,-2.63,-1.63,63.3,0.943,-3.41,-2.42,64.3,0.93,-2.92,-1.38,72.3,0.867,
-3.82,-5.25,63.6,0.984,-2.71,-1.69,63.4,0.941,-3.48,-2.46,64.3,0.926,-2.96,-1.41,72.3,0.864,
-3.89,-5.23,63.4,0.985,-2.73,-1.73,63.5,0.94,-3.5,-2.48,64.3,0.925,-2.97,-1.42,72.3,0.862,
-3.91,-5.27,63.4,0.982,-2.7,-1.68,63.4,0.94,-3.46,-2.45,64.3,0.927,-2.96,-1.42,72.4,0.863,
-3.93,-5.32,63.5,0.983,-2.7,-1.68,63.4,0.941,-3.47,-2.45,64.3,0.926,-2.98,-1.43,72.3,0.862,
-3.91,-5.39,63.8,0.983,-2.7,-1.68,63.4,0.942,-3.48,-2.43,64.2,0.926,-3,-1.43,72.2,0.861,
-4.03,-5.36,63.3,0.98,-2.68,-1.67,63.4,0.941,-3.46,-2.44,64.4,0.926,-2.98,-1.43,72.3,0.862,
-3.96,-5.32,63.4,0.983,-2.7,-1.67,63.4,0.942,-3.49,-2.45,64.3,0.925,-2.98,-1.42,72.3,0.862,
-3.91,-5.31,63.6,0.983,-2.72,-1.69,63.5,0.941,-3.52,-2.46,64.2,0.924,-3,-1.41,72.2,0.861,
-3.88,-5.32,63.7,0.983,-2.71,-1.68,63.5,0.943,-3.51,-2.44,64.2,0.926,-2.99,-1.42,72.4,0.861,
-3.86,-5.32,63.7,0.984,-2.7,-1.66,63.4,0.942,-3.48,-2.43,64.3,0.926,-2.99,-1.41,72.3,0.861,
-3.9,-5.32,63.7,0.983,-2.7,-1.67,63.5,0.941,-3.5,-2.42,64.3,0.925,-3.01,-1.4,72.2,0.86,
-3.94,-5.36,63.7,0.982,-2.71,-1.64,63.4,0.944,-3.49,-2.41,64.3,0.925,-3.01,-1.4,72.3,0.861,
-3.98,-5.35,63.5,0.981,-2.69,-1.64,63.4,0.943,-3.47,-2.4,64.3,0.926,-2.98,-1.4,72.4,0.862,
-3.97,-5.41,63.8,0.983,-2.7,-1.62,63.3,0.943,-3.5,-2.41,64.3,0.925,-2.99,-1.39,72.3,0.861,
-3.99,-5.42,63.8,0.981,-2.7,-1.64,63.4,0.944,-3.53,-2.43,64.3,0.924,-3,-1.39,72.3,0.86,
-4.03,-5.44,63.6,0.98,-2.71,-1.67,63.6,0.943,-3.54,-2.45,64.3,0.925,-3.01,-1.4,72.1,0.862,
-4.08,-5.44,63.4,0.981,-2.72,-1.68,63.5,0.943,-3.55,-2.46,64.3,0.924,-3.02,-1.41,72.3,0.86,
-4.05,-5.5,63.7,0.981,-2.75,-1.7,63.5,0.943,-3.59,-2.48,64.3,0.923,-3.04,-1.43,72.3,0.859,
-4.1,-5.55,63.7,0.977,-2.76,-1.72,63.5,0.942,-3.6,-2.48,64.2,0.923,-3.05,-1.42,72.2,0.858,
-4.09,-5.58,63.8,0.978,-2.75,-1.71,63.5,0.943,-3.58,-2.48,64.3,0.924,-3.03,-1.42,72.2,0.859,
-4.13,-5.61,63.8,0.979,-2.76,-1.72,63.5,0.943,-3.59,-2.48,64.3,0.924,-3.04,-1.41,72.1,0.859,
-4.22,-5.64,63.6,0.978,-2.76,-1.73,63.6,0.941,-3.6,-2.48,64.2,0.923,-3.06,-1.42,72.2,0.857,
-4.22,-5.69,63.8,0.979,-2.74,-1.72,63.5,0.941,-3.58,-2.48,64.3,0.924,-3.04,-1.43,72.2,0.86,
-4.2,-5.69,63.8,0.978,-2.75,-1.71,63.5,0.942,-3.61,-2.49,64.2,0.923,-3.05,-1.43,72.1,0.858,
-4.13,-5.68,64,0.978,-2.76,-1.72,63.6,0.943,-3.62,-2.5,64.3,0.923,-3.05,-1.43,72.3,0.86,
-4.16,-5.68,63.9,0.979,-2.76,-1.71,63.4,0.943,-3.61,-2.51,64.3,0.923,-3.06,-1.43,72.1,0.859,
-4.17,-5.72,64,0.979,-2.75,-1.73,63.6,0.942,-3.6,-2.51,64.3,0.924,-3.05,-1.43,72.1,0.86,
-4.09,-5.64,63.9,0.979,-2.74,-1.72,63.5,0.941,-3.6,-2.51,64.3,0.924,-3.06,-1.45,72.2,0.859,
-2.98,-4.76,64.1,0.985,-2.64,-1.64,63.6,0.945,-3.58,-2.5,64.3,0.926,-3.07,-1.46,72.1,0.865,
-2.2,-4.25,64.6,0.981,-2.57,-1.62,63.7,0.947,-3.54,-2.5,64.4,0.927,-3.07,-1.47,72.2,0.867,
-2.12,-4.16,64.6,0.979,-2.55,-1.59,63.5,0.95,-3.53,-2.48,64.4,0.926,-3.06,-1.45,72.2,0.866,
-2.02,-4.08,64.6,0.98,-2.49,-1.54,63.6,0.95,-3.5,-2.44,64.3,0.928,-3.01,-1.41,72.1,0.868,
-1.91,-4.06,64.8,0.981,-2.45,-1.51,63.6,0.95,-3.46,-2.44,64.4,0.928,-2.97,-1.39,72.2,0.869,
-1.87,-3.99,64.8,0.981,-2.41,-1.48,63.6,0.954,-3.43,-2.41,64.4,0.929,-2.94,-1.37,72.2,0.868,
-1.79,-3.97,64.9,0.983,-2.41,-1.47,63.5,0.954,-3.41,-2.41,64.4,0.928,-2.95,-1.36,72.2,0.867,
-1.79,-4,65,0.979,-2.39,-1.46,63.7,0.954,-3.39,-2.4,64.4,0.93,-2.93,-1.36,72.3,0.869,
-1.73,-3.89,64.8,0.984,-2.35,-1.45,63.6,0.955,-3.36,-2.39,64.4,0.93,-2.9,-1.35,72.2,0.87,
-1.76,-3.88,64.7,0.981,-2.33,-1.46,63.7,0.955,-3.35,-2.38,64.4,0.93,-2.89,-1.34,72.3,0.87,
-1.71,-3.84,64.7,0.985,-2.32,-1.45,63.6,0.956,-3.34,-2.38,64.4,0.93,-2.88,-1.33,72.3,0.87,
-1.69,-3.88,64.9,0.981,-2.28,-1.43,63.7,0.957,-3.3,-2.36,64.4,0.931,-2.84,-1.32,72.4,0.87,
-1.66,-3.85,64.8,0.984,-2.28,-1.43,63.5,0.956,-3.28,-2.35,64.4,0.932,-2.83,-1.32,72.4,0.869,
-1.65,-3.86,64.9,0.983,-2.27,-1.42,63.6,0.958,-3.27,-2.35,64.4,0.931,-2.82,-1.31,72.3,0.869,
-1.57,-3.83,64.9,0.985,-2.24,-1.42,63.7,0.957,-3.24,-2.33,64.5,0.932,-2.8,-1.28,72.3,0.87,
-1.54,-3.85,65,0.981,-2.19,-1.39,63.6,0.961,-3.21,-2.32,64.5,0.933,-2.77,-1.28,72.4,0.87,
-1.59,-3.89,65,0.976,-2.19,-1.4,63.7,0.96,-3.22,-2.31,64.4,0.932,-2.77,-1.27,72.4,0.872,
-1.53,-3.88,65.2,0.977,-2.17,-1.36,63.6,0.961,-3.2,-2.3,64.5,0.932,-2.75,-1.26,72.4,0.871,
-1.42,-3.91,65.4,0.977,-2.12,-1.31,63.5,0.961,-3.15,-2.28,64.4,0.934,-2.69,-1.21,72.3,0.872,
-1.39,-3.84,65.3,0.978,-2.08,-1.31,63.7,0.963,-3.13,-2.26,64.4,0.935,-2.66,-1.19,72.4,0.872,
-1.33,-3.88,65.6,0.974,-2.06,-1.28,63.6,0.963,-3.1,-2.25,64.5,0.936,-2.66,-1.17,72.3,0.872,
-1.3,-3.81,65.4,0.978,-2.04,-1.26,63.4,0.964,-3.08,-2.23,64.4,0.938,-2.66,-1.18,72.4,0.873,
-1.24,-3.81,65.5,0.978,-1.99,-1.25,63.7,0.966,-3.06,-2.22,64.4,0.939,-2.64,-1.18,72.4,0.876,
-1.23,-3.77,65.5,0.978,-1.98,-1.21,63.5,0.967,-3.05,-2.22,64.5,0.937,-2.63,-1.16,72.3,0.875,
-1.2,-3.72,65.3,0.98,-1.97,-1.2,63.6,0.968,-3.06,-2.19,64.3,0.938,-2.63,-1.13,72,0.875,
-1.19,-3.63,65,0.982,-1.9,-1.19,63.8,0.968,-3.03,-2.18,64.3,0.938,-2.58,-1.11,72.4,0.878,
-1.1,-3.67,65.5,0.984,-1.9,-1.17,63.6,0.97,-3.02,-2.19,64.4,0.937,-2.57,-1.09,72.2,0.878,
-1.13,-3.59,65.2,0.985,-1.89,-1.16,63.7,0.971,-3.03,-2.17,64.3,0.937,-2.59,-1.07,72.1,0.878,
-1.15,-3.51,64.8,0.986,-1.93,-1.16,63.5,0.969,-3.03,-2.18,64.3,0.938,-2.59,-1.07,72.2,0.879,
-0.99,-3.6,65.5,0.984,-1.89,-1.15,63.6,0.969,-3.01,-2.16,64.3,0.937,-2.54,-1.03,72.1,0.882,
-1.01,-3.44,64.9,0.988,-1.86,-1.13,63.7,0.971,-3,-2.13,64.2,0.936,-2.49,-0.99,72.2,0.883,
-0.99,-3.42,65,0.99,-1.86,-1.11,63.6,0.972,-2.99,-2.11,64.3,0.934,-2.48,-0.95,72.1,0.884,
-1.02,-3.46,65.1,0.987,-1.88,-1.12,63.5,0.971,-3,-2.13,64.3,0.936,-2.51,-0.99,72.3,0.883,
-1.02,-3.48,65.1,0.987,-1.9,-1.13,63.5,0.971,-3.03,-2.15,64.2,0.938,-2.56,-1.03,72.1,0.882,
-1.07,-3.32,64.6,0.993,-1.9,-1.13,63.6,0.971,-3.04,-2.15,64.2,0.938,-2.59,-1.03,72.1,0.883,
-1.07,-3.22,64.3,0.997,-1.88,-1.1,63.5,0.971,-3.03,-2.12,64.2,0.938,-2.59,-1.03,72.2,0.884,
-1.02,-3.13,64.1,1.005,-1.85,-1.08,63.7,0.972,-3.02,-2.11,64.1,0.939,-2.6,-1.02,72,0.886,
-1.1,-3.06,63.7,1.005,-1.85,-1.1,63.7,0.971,-3.02,-2.1,64.2,0.936,-2.59,-1.01,72,0.884,
-1.05,-3.03,63.8,1.01,-1.84,-1.08,63.6,0.973,-3,-2.07,64.2,0.935,-2.56,-0.97,72,0.885,
-1.07,-2.99,63.6,1.01,-1.85,-1.06,63.5,0.974,-2.99,-2.07,64.2,0.933,-2.54,-0.96,72.2,0.885,
-1,-2.91,63.5,1.014,-1.8,-1.04,63.7,0.975,-2.95,-2.03,64.2,0.934,-2.5,-0.92,72.1,0.884,
-1.01,-2.86,63.4,1.015,-1.78,-1.01,63.7,0.976,-2.94,-2.01,64.2,0.933,-2.5,-0.91,72,0.883,
-0.93,-2.92,63.9,1.015,-1.79,-0.99,63.6,0.976,-2.93,-2,64.2,0.934,-2.5,-0.9,72,0.883,
-0.9,-2.9,63.8,1.014,-1.75,-0.97,63.6,0.979,-2.9,-1.98,64.2,0.935,-2.5,-0.89,71.9,0.886,
-0.91,-2.85,63.6,1.019,-1.77,-0.96,63.5,0.977,-2.93,-1.97,64.1,0.934,-2.51,-0.89,71.9,0.885,
-0.98,-2.91,63.7,1.01,-1.78,-0.96,63.5,0.976,-2.91,-1.97,64.2,0.935,-2.5,-0.89,72.1,0.885,
-0.92,-2.9,63.8,1.015,-1.77,-0.94,63.5,0.977,-2.92,-1.94,64.1,0.934,-2.49,-0.88,72.1,0.884,
-0.85,-2.87,63.9,1.018,-1.73,-0.92,63.5,0.98,-2.88,-1.94,64.2,0.935,-2.48,-0.87,72,0.885,
-0.9,-2.91,63.9,1.011,-1.74,-0.92,63.5,0.979,-2.88,-1.94,64.3,0.934,-2.5,-0.87,71.9,0.886,
-0.91,-2.81,63.6,1.016,-1.75,-0.92,63.5,0.978,-2.88,-1.93,64.2,0.935,-2.51,-0.87,72,0.885,
-0.92,-2.82,63.6,1.015,-1.73,-0.89,63.4,0.981,-2.87,-1.93,64.3,0.935,-2.49,-0.86,72,0.886,
-0.9,-2.81,63.6,1.015,-1.71,-0.89,63.5,0.982,-2.84,-1.9,64.2,0.936,-2.48,-0.84,71.9,0.887,
-0.85,-2.84,63.9,1.015,-1.72,-0.89,63.6,0.98,-2.84,-1.88,64.2,0.936,-2.47,-0.84,72.1,0.888,
-0.86,-2.84,63.9,1.013,-1.71,-0.89,63.6,0.981,-2.84,-1.89,64.2,0.935,-2.47,-0.83,72,0.888,
-0.75,-2.89,64.3,1.013,-1.69,-0.9,63.7,0.981,-2.83,-1.88,64.1,0.936,-2.48,-0.83,71.9,0.889,
-0.76,-2.92,64.3,1.01,-1.71,-0.89,63.6,0.981,-2.83,-1.91,64.3,0.935,-2.48,-0.85,72,0.889,
-0.78,-2.91,64.3,1.009,-1.72,-0.9,63.6,0.98,-2.87,-1.92,64.2,0.935,-2.51,-0.87,72,0.887,
-0.76,-3.04,64.7,1.003,-1.72,-0.91,63.6,0.98,-2.86,-1.94,64.3,0.934,-2.49,-0.86,72,0.887,
-0.78,-3.02,64.6,1.002,-1.7,-0.92,63.8,0.98,-2.85,-1.94,64.3,0.935,-2.48,-0.85,72,0.886,
-0.76,-3.03,64.7,1.002,-1.73,-0.91,63.5,0.98,-2.86,-1.94,64.3,0.933,-2.48,-0.85,72,0.885,
-0.73,-3.04,64.9,1.003,-1.73,-0.92,63.6,0.98,-2.85,-1.94,64.3,0.934,-2.46,-0.84,72,0.885,
-0.73,-3,64.7,1.002,-1.7,-0.92,63.6,0.98,-2.83,-1.94,64.4,0.934,-2.44,-0.83,72,0.887,
-0.68,-2.97,64.8,1.003,-1.7,-0.93,63.8,0.978,-2.82,-1.95,64.5,0.935,-2.46,-0.84,72.1,0.886,
-0.67,-3,64.9,1.001,-1.69,-0.9,63.6,0.981,-2.83,-1.95,64.5,0.934,-2.46,-0.82,72,0.886,
-0.61,-3,65,1.003,-1.68,-0.9,63.7,0.98,-2.8,-1.92,64.4,0.935,-2.43,-0.81,72,0.887,
-0.66,-2.96,64.8,1,-1.67,-0.88,63.6,0.981,-2.79,-1.91,64.3,0.934,-2.42,-0.79,72,0.885,
-0.61,-2.92,64.8,1.003,-1.65,-0.87,63.6,0.984,-2.79,-1.91,64.3,0.936,-2.42,-0.8,72,0.886,
-0.61,-2.94,64.8,1,-1.65,-0.9,63.8,0.98,-2.77,-1.93,64.5,0.936,-2.41,-0.8,72,0.886,
-0.5,-2.91,65,1.002,-1.61,-0.87,63.6,0.982,-2.74,-1.92,64.5,0.937,-2.38,-0.8,72.1,0.887,
-0.48,-2.88,64.9,1.002,-1.59,-0.86,63.7,0.982,-2.74,-1.94,64.5,0.936,-2.4,-0.8,72.1,0.886,
-0.43,-2.88,65.1,1.002,-1.58,-0.84,63.6,0.983,-2.74,-1.92,64.4,0.937,-2.4,-0.8,72.1,0.886,
-0.41,-2.86,65,1,-1.54,-0.84,63.7,0.984,-2.69,-1.92,64.5,0.939,-2.38,-0.81,72.1,0.888,
-0.41,-2.87,65,1.001,-1.57,-0.86,63.6,0.982,-2.7,-1.93,64.5,0.938,-2.38,-0.8,72.1,0.886,
-0.48,-2.88,64.8,1.001,-1.59,-0.89,63.6,0.981,-2.73,-1.95,64.5,0.937,-2.39,-0.81,72,0.886,
-0.56,-2.89,64.7,0.997,-1.6,-0.9,63.6,0.981,-2.72,-1.97,64.5,0.937,-2.38,-0.82,72.1,0.883,
-0.48,-2.88,64.8,1.001,-1.56,-0.92,63.9,0.983,-2.71,-1.96,64.5,0.938,-2.37,-0.82,72,0.882,
-0.49,-2.91,64.8,0.998,-1.6,-0.92,63.6,0.982,-2.72,-1.99,64.6,0.937,-2.38,-0.83,72,0.88,
-0.52,-2.94,64.8,0.997,-1.59,-0.93,63.9,0.981,-2.72,-1.98,64.6,0.936,-2.38,-0.84,72.2,0.879,
-0.49,-2.97,64.9,0.996,-1.57,-0.94,63.7,0.981,-2.69,-1.98,64.6,0.937,-2.36,-0.84,72,0.879,
-0.48,-3,65,0.996,-1.59,-0.96,63.7,0.981,-2.72,-2,64.6,0.936,-2.39,-0.87,72,0.875,
-0.49,-2.99,64.9,0.999,-1.6,-0.99,63.8,0.98,-2.75,-2.02,64.6,0.935,-2.4,-0.88,72.1,0.875,
-0.5,-3.01,64.8,0.996,-1.61,-1,63.8,0.979,-2.72,-2.03,64.7,0.936,-2.39,-0.87,71.9,0.875,
-0.5,-3.01,64.8,0.998,-1.65,-1.04,63.7,0.979,-2.75,-2.05,64.6,0.936,-2.4,-0.9,72.2,0.872,
-0.52,-3.04,64.8,0.997,-1.68,-1.06,63.6,0.977,-2.76,-2.06,64.6,0.935,-2.4,-0.89,72.1,0.873,
-0.56,-3.03,64.7,0.996,-1.66,-1.06,63.8,0.977,-2.74,-2.06,64.7,0.936,-2.4,-0.89,72,0.873,
-0.53,-3.04,64.7,0.996,-1.64,-1.06,63.7,0.977,-2.72,-2.06,64.7,0.936,-2.4,-0.9,72,0.873,
-0.53,-3.07,64.8,0.996,-1.66,-1.08,63.8,0.977,-2.75,-2.06,64.6,0.934,-2.41,-0.91,72,0.872,
-1.25,-3.58,64.5,0.991,-1.7,-1.11,63.6,0.976,-2.76,-2.06,64.6,0.934,-2.42,-0.9,71.9,0.871,
-1.49,-3.86,64.6,0.992,-1.69,-1.12,63.7,0.976,-2.72,-2.05,64.7,0.936,-2.39,-0.9,72,0.873,
-0.92,-3.44,64.8,0.994,-1.7,-1.12,63.8,0.977,-2.73,-2.05,64.8,0.936,-2.4,-0.91,72,0.873,
-1,-3.49,64.8,0.992,-1.75,-1.16,63.7,0.974,-2.75,-2.05,64.7,0.938,-2.4,-0.9,72,0.873,
-2.46,-4.69,64.4,0.983,-1.86,-1.27,63.8,0.972,-2.8,-2.1,64.7,0.936,-2.42,-0.91,71.9,0.871,
-2.67,-4.99,64.7,0.978,-1.95,-1.35,63.7,0.969,-2.81,-2.12,64.8,0.932,-2.49,-0.97,71.9,0.868,
-2.91,-5.13,64.4,0.977,-2.01,-1.42,63.7,0.966,-2.88,-2.17,64.8,0.928,-2.58,-1.04,72,0.86,
-3.04,-5.38,64.7,0.97,-2.06,-1.46,63.7,0.963,-2.93,-2.22,64.9,0.924,-2.62,-1.09,72.1,0.855,
-2.95,-5.36,64.8,0.973,-2.04,-1.46,63.7,0.962,-2.92,-2.21,64.9,0.926,-2.64,-1.12,72,0.854,
-3.03,-5.31,64.5,0.975,-2.06,-1.46,63.6,0.963,-2.95,-2.23,64.9,0.926,-2.71,-1.17,72.1,0.852,
-2.96,-5.32,64.7,0.972,-2.07,-1.48,63.7,0.961,-2.99,-2.22,64.7,0.926,-2.75,-1.2,72.1,0.852,
-2.85,-5.19,64.6,0.973,-2.03,-1.45,63.6,0.96,-2.97,-2.22,64.8,0.928,-2.78,-1.23,72.1,0.855,
-2.78,-5.28,65,0.968,-1.99,-1.42,63.7,0.959,-2.97,-2.19,64.7,0.929,-2.78,-1.23,72.1,0.856,
-2.79,-5.33,65.2,0.967,-1.98,-1.41,63.7,0.961,-2.97,-2.16,64.6,0.931,-2.78,-1.22,72.1,0.857,
-2.74,-5.25,65.1,0.969,-1.99,-1.4,63.6,0.961,-2.98,-2.15,64.5,0.93,-2.79,-1.21,72.1,0.858,
-2.56,-5.13,65.2,0.97,-1.93,-1.37,63.6,0.963,-2.96,-2.15,64.6,0.932,-2.75,-1.19,72.1,0.864,
-1.78,-4.51,65.4,0.975,-1.89,-1.33,63.6,0.963,-2.94,-2.1,64.5,0.935,-2.77,-1.19,72.1,0.864,
-1.33,-4.04,65.1,0.977,-1.84,-1.28,63.6,0.965,-2.92,-2.05,64.4,0.936,-2.75,-1.17,72,0.866,
-1.18,-4,65.4,0.979,-1.8,-1.26,63.7,0.965,-2.89,-2.02,64.3,0.938,-2.71,-1.14,72,0.868,
-1.14,-3.95,65.3,0.98,-1.78,-1.23,63.8,0.966,-2.89,-2,64.3,0.937,-2.68,-1.1,72,0.87,
-1.13,-3.85,65.1,0.983,-1.76,-1.22,63.8,0.966,-2.9,-1.98,64.2,0.937,-2.67,-1.08,71.9,0.873,
-1.13,-3.73,64.7,0.985,-1.73,-1.19,63.7,0.969,-2.88,-1.97,64.2,0.937,-2.65,-1.07,72,0.873,
-1.07,-3.69,64.8,0.986,-1.71,-1.19,63.7,0.968,-2.89,-1.94,64.1,0.938,-2.64,-1.06,72,0.874,
-1.08,-3.62,64.6,0.987,-1.72,-1.19,63.7,0.969,-2.91,-1.95,64.1,0.937,-2.65,-1.07,72,0.875,
-1.01,-3.6,64.8,0.99,-1.74,-1.19,63.6,0.968,-2.94,-1.96,64,0.937,-2.68,-1.1,72.1,0.873,
-0.98,-3.51,64.5,0.992,-1.71,-1.21,63.7,0.967,-2.94,-1.96,64,0.939,-2.69,-1.12,72,0.874,
-1.02,-3.45,64.3,0.993,-1.72,-1.21,63.7,0.968,-2.98,-1.97,63.8,0.938,-2.7,-1.14,72,0.873,
-0.98,-3.49,64.5,0.992,-1.71,-1.21,63.8,0.968,-3,-1.98,63.8,0.937,-2.73,-1.15,71.8,0.87,
-0.94,-3.45,64.4,0.992,-1.69,-1.2,63.8,0.969,-2.99,-1.98,63.8,0.937,-2.72,-1.15,72.1,0.87,
-0.91,-3.45,64.5,0.991,-1.68,-1.2,63.7,0.968,-2.99,-1.99,64,0.936,-2.73,-1.17,72.1,0.869,
-0.85,-3.49,64.8,0.993,-1.69,-1.18,63.5,0.969,-3.01,-2.01,64,0.936,-2.76,-1.19,72.2,0.865,
-0.9,-3.39,64.4,0.999,-1.69,-1.2,63.7,0.968,-3.03,-2.02,63.9,0.936,-2.78,-1.18,72,0.864,
-0.87,-3.33,64.3,1.002,-1.65,-1.18,63.8,0.97,-3,-2.02,64,0.936,-2.75,-1.18,72.1,0.865,
-0.88,-3.31,64.3,1.002,-1.64,-1.16,63.7,0.971,-2.99,-2.01,64,0.935,-2.71,-1.16,72.2,0.867,
-0.91,-3.32,64.2,0.999,-1.65,-1.14,63.6,0.97,-2.98,-2,64,0.934,-2.7,-1.14,72.2,0.868,
-0.88,-3.26,64.1,1.004,-1.63,-1.13,63.7,0.973,-2.95,-1.98,64,0.934,-2.67,-1.11,72.2,0.867,
-0.87,-3.29,64.2,1,-1.62,-1.11,63.6,0.973,-2.91,-1.97,64.2,0.933,-2.63,-1.08,72.2,0.868,
-0.88,-3.23,64.1,1.005,-1.65,-1.12,63.5,0.972,-2.9,-1.95,64.1,0.932,-2.58,-1.04,72.2,0.868,
-0.86,-3.25,64.1,1.004,-1.64,-1.1,63.6,0.974,-2.88,-1.94,64.2,0.932,-2.54,-1,72.2,0.868,
-0.82,-3.28,64.3,1,-1.6,-1.08,63.4,0.977,-2.84,-1.94,64.3,0.932,-2.51,-0.99,72.2,0.869,
-0.78,-3.31,64.5,0.997,-1.61,-1.07,63.5,0.973,-2.85,-1.94,64.2,0.933,-2.53,-1.01,72.2,0.87,
-0.75,-3.32,64.6,0.997,-1.62,-1.08,63.5,0.975,-2.85,-1.96,64.3,0.933,-2.54,-1.01,72.2,0.867,
-0.65,-3.44,65.3,0.993,-1.6,-1.07,63.5,0.976,-2.81,-1.97,64.4,0.934,-2.5,-1,72.4,0.868,
-0.68,-3.35,64.9,0.996,-1.59,-1.07,63.6,0.977,-2.84,-1.98,64.3,0.933,-2.51,-1.01,72.3,0.867,
-0.69,-3.35,64.9,0.993,-1.56,-1.06,63.6,0.978,-2.82,-1.98,64.4,0.933,-2.52,-1.01,72.3,0.867,
-0.63,-3.35,65,0.995,-1.58,-1.07,63.5,0.976,-2.81,-1.99,64.3,0.932,-2.51,-1.01,72.3,0.868,
-0.67,-3.35,65,0.991,-1.59,-1.07,63.5,0.977,-2.8,-1.98,64.4,0.932,-2.52,-1.02,72.3,0.867,
-0.71,-3.31,64.8,0.992,-1.59,-1.07,63.5,0.977,-2.81,-1.98,64.4,0.932,-2.52,-1.01,72.3,0.865,
-0.68,-3.38,65,0.99,-1.6,-1.05,63.3,0.977,-2.81,-1.96,64.2,0.932,-2.49,-0.99,72.4,0.865,
-0.64,-3.34,65.1,0.991,-1.56,-1.05,63.5,0.976,-2.76,-1.96,64.4,0.933,-2.46,-0.97,72.3,0.865,
-0.64,-3.32,65,0.994,-1.58,-1.03,63.4,0.978,-2.77,-1.95,64.3,0.932,-2.44,-0.94,72.2,0.866,
-0.67,-3.37,65.1,0.99,-1.58,-1.04,63.5,0.978,-2.77,-1.95,64.3,0.932,-2.43,-0.93,72.3,0.865,
-0.64,-3.3,64.9,0.994,-1.56,-1.05,63.5,0.977,-2.76,-1.95,64.3,0.932,-2.41,-0.93,72.3,0.865,
-0.64,-3.32,65,0.992,-1.6,-1.05,63.4,0.978,-2.78,-1.97,64.3,0.932,-2.44,-0.95,72.2,0.862,
-0.66,-3.32,65,0.991,-1.6,-1.07,63.5,0.977,-2.8,-2,64.4,0.931,-2.43,-0.95,72.3,0.862,
-0.6,-3.33,65.2,0.993,-1.62,-1.08,63.4,0.975,-2.81,-2.01,64.3,0.931,-2.44,-0.96,72.4,0.86,
-0.66,-3.26,64.7,0.993,-1.61,-1.09,63.4,0.977,-2.8,-2.02,64.4,0.931,-2.43,-0.96,72.3,0.86,
-0.62,-3.33,65.1,0.992,-1.63,-1.1,63.5,0.975,-2.84,-2.02,64.2,0.93,-2.44,-0.97,72.4,0.861,
-0.63,-3.24,64.9,0.997,-1.65,-1.1,63.4,0.975,-2.85,-2.02,64.2,0.931,-2.45,-0.98,72.2,0.858,
-0.62,-3.28,64.9,0.995,-1.66,-1.11,63.3,0.975,-2.83,-2.03,64.3,0.932,-2.45,-0.98,72.2,0.859,
-0.67,-3.22,64.6,0.995,-1.67,-1.13,63.5,0.975,-2.86,-2.04,64.2,0.931,-2.47,-1,72.3,0.86,
-0.65,-3.26,64.8,0.997,-1.69,-1.14,63.4,0.975,-2.9,-2.06,64.1,0.931,-2.52,-1.02,72.1,0.862,
-0.75,-3.33,64.8,0.993,-1.74,-1.17,63.4,0.973,-2.93,-2.08,64.1,0.931,-2.55,-1.05,72.3,0.861,
-1.31,-3.89,64.9,0.986,-1.74,-1.19,63.4,0.973,-2.93,-2.08,64.1,0.932,-2.56,-1.05,72.3,0.86,
-1.09,-3.59,64.7,0.989,-1.86,-1.28,63.4,0.972,-2.96,-2.1,64.1,0.933,-2.53,-1.03,72.3,0.859,
-1.33,-3.83,64.7,0.98,-2.14,-1.5,63.2,0.967,-3.12,-2.23,64.1,0.93,-2.43,-0.92,72.2,0.858,
-1.48,-3.94,64.6,0.982,-2.19,-1.58,63.4,0.964,-3.19,-2.29,64.1,0.928,-2.44,-0.94,72.2,0.859,
-1.57,-4.05,64.7,0.981,-2.33,-1.68,63.4,0.96,-3.23,-2.33,64.2,0.924,-2.51,-0.97,72.2,0.855,
-1.56,-4.17,65.1,0.979,-2.37,-1.73,63.4,0.956,-3.28,-2.35,64.2,0.922,-2.58,-1.04,72.3,0.853,
-1.57,-4.09,64.9,0.981,-2.35,-1.71,63.5,0.956,-3.28,-2.35,64.2,0.922,-2.64,-1.09,72.2,0.849,
-1.2,-3.84,65.1,0.983,-2.17,-1.56,63.4,0.958,-3.17,-2.26,64.2,0.925,-2.71,-1.17,72.2,0.853,
-1.29,-3.95,65.3,0.981,-2.27,-1.63,63.5,0.957,-3.36,-2.42,64.2,0.925,-2.87,-1.31,72.3,0.853,
-1.51,-4.03,64.9,0.977,-2.39,-1.7,63.4,0.955,-3.52,-2.53,64.2,0.921,-2.94,-1.35,72.1,0.849,
-1.5,-4,64.9,0.977,-2.41,-1.74,63.4,0.954,-3.62,-2.61,64.2,0.921,-2.98,-1.39,72.3,0.849,
-1.51,-4.08,65.1,0.975,-2.46,-1.77,63.4,0.953,-3.69,-2.65,64.1,0.918,-2.99,-1.4,72.3,0.848,
-1.57,-4.08,64.9,0.977,-2.5,-1.82,63.5,0.951,-3.75,-2.71,64.3,0.914,-3.03,-1.42,72.3,0.847,
-1.66,-4.11,64.7,0.976,-2.55,-1.84,63.4,0.95,-3.8,-2.74,64.2,0.914,-3.09,-1.44,72.1,0.844,
-1.68,-4.19,64.9,0.972,-2.55,-1.87,63.4,0.946,-3.78,-2.74,64.3,0.917,-3.08,-1.47,72.3,0.844,
-1.69,-4.18,64.9,0.975,-2.59,-1.89,63.4,0.945,-3.78,-2.74,64.3,0.915,-3.1,-1.47,72.3,0.843,
-1.68,-4.21,65.1,0.974,-2.62,-1.9,63.4,0.943,-3.75,-2.7,64.2,0.917,-3.11,-1.47,72.3,0.846,
-1.7,-4.17,64.9,0.974,-2.61,-1.9,63.4,0.942,-3.74,-2.7,64.3,0.917,-3.09,-1.45,72.2,0.846,
-1.67,-4.16,65,0.974,-2.59,-1.89,63.4,0.943,-3.69,-2.65,64.2,0.918,-3.05,-1.42,72.3,0.848,
-1.67,-4.13,64.9,0.975,-2.62,-1.88,63.3,0.942,-3.71,-2.65,64.2,0.919,-3.05,-1.4,72.2,0.85,
-1.64,-4.17,65.1,0.976,-2.62,-1.86,63.2,0.944,-3.71,-2.65,64.2,0.919,-3.01,-1.38,72.3,0.851,
-1.82,-4.19,64.7,0.977,-2.68,-1.94,63.4,0.942,-3.72,-2.67,64.2,0.919,-3.08,-1.43,72.3,0.849,
-1.77,-4.2,64.9,0.976,-2.69,-1.95,63.5,0.943,-3.78,-2.72,64.2,0.916,-3.1,-1.45,72.3,0.849,
-1.75,-4.13,64.8,0.977,-2.69,-1.94,63.4,0.943,-3.8,-2.74,64.3,0.915,-3.09,-1.43,72.3,0.851,
-1.71,-4.14,64.8,0.976,-2.69,-1.95,63.4,0.943,-3.8,-2.76,64.3,0.916,-3.09,-1.45,72.3,0.851,
-1.75,-4.15,64.8,0.974,-2.7,-1.96,63.3,0.942,-3.84,-2.79,64.3,0.914,-3.1,-1.47,72.4,0.85,
-1.73,-4.22,65,0.975,-2.73,-1.99,63.4,0.941,-3.88,-2.83,64.4,0.913,-3.14,-1.48,72.2,0.849,
-1.76,-4.2,64.8,0.975,-2.74,-2.02,63.5,0.94,-3.88,-2.86,64.4,0.913,-3.14,-1.5,72.4,0.849,
-1.78,-4.23,64.9,0.972,-2.74,-2.01,63.4,0.941,-3.89,-2.85,64.3,0.912,-3.13,-1.5,72.5,0.847,
-1.65,-4.11,64.9,0.978,-2.67,-1.98,63.6,0.939,-3.78,-2.75,64.3,0.911,-3.14,-1.48,72.3,0.846,
-1.7,-4.11,64.7,0.976,-2.66,-1.95,63.4,0.943,-3.78,-2.75,64.3,0.913,-3.09,-1.44,72.2,0.847,
-1.51,-4.18,65.4,0.981,-2.67,-1.95,63.5,0.943,-3.79,-2.78,64.4,0.913,-3.09,-1.46,72.5,0.845,
-1.48,-4.16,65.5,0.984,-2.65,-1.95,63.5,0.942,-3.79,-2.78,64.3,0.912,-3.1,-1.46,72.4,0.847,
-1.48,-4.21,65.7,0.984,-2.67,-1.94,63.4,0.943,-3.81,-2.8,64.5,0.912,-3.12,-1.46,72.3,0.844,
-1.53,-4.2,65.5,0.984,-2.67,-1.95,63.4,0.942,-3.8,-2.79,64.4,0.912,-3.09,-1.47,72.4,0.845,
-1.65,-4.19,65.2,0.984,-2.69,-1.97,63.5,0.942,-3.81,-2.81,64.4,0.912,-3.09,-1.47,72.6,0.843,
-1.65,-4.2,65.3,0.985,-2.72,-1.97,63.2,0.941,-3.82,-2.8,64.3,0.911,-3.08,-1.46,72.5,0.843,
-1.58,-4.24,65.5,0.985,-2.69,-1.97,63.5,0.941,-3.79,-2.79,64.4,0.913,-3.07,-1.43,72.3,0.845,
-1.61,-4.17,65.3,0.986,-2.71,-1.96,63.4,0.941,-3.78,-2.79,64.4,0.912,-3.04,-1.41,72.5,0.846,
-1.6,-4.21,65.5,0.986,-2.71,-1.94,63.4,0.943,-3.76,-2.76,64.4,0.912,-3.03,-1.39,72.5,0.843,
-1.61,-4.16,65.3,0.986,-2.7,-1.93,63.3,0.941,-3.74,-2.76,64.5,0.913,-3,-1.36,72.4,0.847,
-1.57,-4.11,65.3,0.986,-2.69,-1.91,63.3,0.943,-3.74,-2.74,64.3,0.914,-2.99,-1.35,72.4,0.846,
-1.59,-4.12,65.3,0.985,-2.7,-1.9,63.3,0.943,-3.74,-2.72,64.3,0.914,-2.98,-1.34,72.5,0.847,
-1.61,-4.15,65.4,0.985,-2.68,-1.89,63.4,0.944,-3.73,-2.72,64.4,0.914,-2.97,-1.32,72.4,0.846,
-1.61,-4.07,65.1,0.984,-2.65,-1.88,63.4,0.942,-3.68,-2.68,64.4,0.915,-2.93,-1.3,72.5,0.847,
-1.57,-4.05,65.2,0.985,-2.67,-1.88,63.3,0.943,-3.72,-2.68,64.2,0.916,-2.94,-1.3,72.4,0.848,
-1.68,-4.09,65,0.983,-2.67,-1.87,63.3,0.944,-3.72,-2.67,64.3,0.915,-2.96,-1.3,72.5,0.844,
-1.66,-4.08,65,0.984,-2.66,-1.87,63.4,0.942,-3.68,-2.65,64.2,0.917,-2.92,-1.28,72.5,0.846,
-1.65,-4.19,65.5,0.981,-2.7,-1.89,63.4,0.941,-3.72,-2.67,64.2,0.915,-2.93,-1.29,72.5,0.844,
-1.65,-4.16,65.5,0.982,-2.7,-1.89,63.4,0.944,-3.76,-2.69,64.2,0.915,-2.92,-1.27,72.5,0.844,
-1.76,-4.13,65.1,0.978,-2.73,-1.92,63.4,0.942,-3.77,-2.7,64.1,0.914,-2.94,-1.27,72.4,0.843,
-1.89,-4.12,64.7,0.973,-2.75,-1.92,63.5,0.943,-3.78,-2.7,64.2,0.914,-2.94,-1.28,72.5,0.841,
-1.99,-4.13,64.4,0.967,-2.78,-1.92,63.2,0.942,-3.81,-2.72,64.1,0.913,-2.94,-1.27,72.6,0.841,
-2.01,-4.13,64.5,0.965,-2.79,-1.93,63.3,0.942,-3.83,-2.73,64.2,0.913,-2.96,-1.27,72.4,0.839,
-2.09,-4.05,64,0.964,-2.79,-1.93,63.3,0.943,-3.82,-2.73,64.2,0.913,-2.94,-1.28,72.7,0.84,
-2.02,-4.13,64.4,0.966,-2.82,-1.95,63.3,0.941,-3.86,-2.74,64,0.912,-2.96,-1.27,72.4,0.84,
-2.11,-4.03,63.8,0.963,-2.84,-1.96,63.3,0.941,-3.89,-2.75,64,0.91,-2.98,-1.29,72.6,0.838,
-1.94,-4.04,64.4,0.965,-2.8,-1.92,63.3,0.943,-3.87,-2.75,64.1,0.912,-2.98,-1.29,72.5,0.838,
-2,-3.91,63.8,0.965,-2.79,-1.91,63.4,0.943,-3.88,-2.74,64,0.912,-3.03,-1.32,72.4,0.836,
-1.94,-3.92,64,0.966,-2.79,-1.9,63.3,0.942,-3.9,-2.75,64,0.912,-3.07,-1.36,72.5,0.834,
-1.94,-3.87,63.9,0.968,-2.77,-1.89,63.3,0.942,-3.91,-2.76,64.1,0.912,-3.08,-1.39,72.7,0.834,
-1.93,-3.89,64.1,0.967,-2.79,-1.89,63.3,0.941,-3.93,-2.77,64.1,0.911,-3.1,-1.4,72.7,0.833,
-1.99,-3.88,63.7,0.967,-2.79,-1.9,63.4,0.941,-3.96,-2.78,64.1,0.91,-3.11,-1.39,72.6,0.834,
-1.93,-3.96,64.3,0.968,-2.79,-1.91,63.5,0.941,-3.95,-2.78,64.1,0.911,-3.1,-1.39,72.6,0.834,
-1.94,-3.94,64.1,0.968,-2.8,-1.88,63.3,0.942,-3.95,-2.77,64,0.91,-3.09,-1.38,72.6,0.836,
-1.98,-3.93,64,0.967,-2.8,-1.88,63.4,0.942,-3.94,-2.75,64.1,0.91,-3.1,-1.37,72.6,0.835,
-1.93,-3.95,64.3,0.969,-2.79,-1.86,63.3,0.941,-3.92,-2.75,64.1,0.911,-3.09,-1.35,72.6,0.837,
-1.99,-3.9,64,0.97,-2.79,-1.86,63.4,0.941,-3.92,-2.75,64.2,0.911,-3.08,-1.36,72.7,0.837,
-1.97,-3.98,64.3,0.97,-2.8,-1.86,63.3,0.944,-3.95,-2.76,64.2,0.91,-3.1,-1.35,72.6,0.837,
-2.01,-3.94,64.1,0.972,-2.81,-1.87,63.5,0.943,-3.97,-2.77,64.2,0.909,-3.1,-1.34,72.6,0.838,
-1.93,-3.95,64.2,0.976,-2.8,-1.87,63.4,0.944,-3.94,-2.77,64.2,0.911,-3.08,-1.34,72.6,0.839,
-1.89,-3.98,64.5,0.978,-2.84,-1.88,63.3,0.942,-3.97,-2.78,64.2,0.91,-3.09,-1.34,72.6,0.841,
-1.9,-4.01,64.6,0.978,-2.84,-1.89,63.4,0.941,-3.99,-2.78,64.1,0.909,-3.11,-1.35,72.5,0.838,
-1.9,-3.99,64.5,0.98,-2.83,-1.88,63.4,0.942,-3.97,-2.77,64.1,0.909,-3.09,-1.35,72.6,0.839,
-1.8,-4,64.8,0.984,-2.82,-1.88,63.5,0.943,-3.96,-2.76,64.1,0.909,-3.09,-1.33,72.6,0.841,
-1.82,-4.02,65,0.982,-2.84,-1.87,63.3,0.942,-3.96,-2.76,64.2,0.909,-3.1,-1.33,72.5,0.841,
-1.8,-4.01,64.9,0.985,-2.84,-1.85,63.3,0.942,-3.96,-2.74,64.1,0.909,-3.09,-1.31,72.4,0.842,
-1.8,-4.02,64.9,0.984,-2.82,-1.85,63.4,0.941,-3.92,-2.73,64.3,0.909,-3.07,-1.31,72.4,0.842,
-1.81,-3.98,64.8,0.983,-2.83,-1.83,63.2,0.942,-3.93,-2.7,64.1,0.91,-3.07,-1.3,72.6,0.844,
-1.81,-3.97,64.8,0.983,-2.83,-1.83,63.3,0.941,-3.91,-2.69,64.1,0.91,-3.08,-1.29,72.4,0.845,
-1.82,-3.95,64.8,0.984,-2.81,-1.82,63.4,0.942,-3.89,-2.69,64.2,0.911,-3.05,-1.29,72.4,0.846,
-1.84,-3.97,64.7,0.985,-2.82,-1.82,63.3,0.942,-3.9,-2.7,64.2,0.911,-3.07,-1.3,72.4,0.844,
-1.85,-4.03,64.9,0.984,-2.84,-1.83,63.3,0.942,-3.93,-2.72,64.1,0.911,-3.08,-1.33,72.5,0.844,
-1.87,-4.09,65,0.983,-2.85,-1.84,63.3,0.942,-3.95,-2.74,64.1,0.911,-3.08,-1.34,72.6,0.842,
-1.86,-4.02,64.8,0.985,-2.8,-1.81,63.4,0.943,-3.94,-2.74,64.1,0.913,-3.02,-1.28,72.5,0.845,
-1.93,-4.07,64.8,0.981,-2.78,-1.77,63.2,0.942,-3.84,-2.66,64.1,0.913,-2.94,-1.21,72.5,0.843,
-1.93,-4.06,64.8,0.984,-2.76,-1.75,63.3,0.943,-3.77,-2.58,64,0.913,-2.89,-1.15,72.4,0.845,
-1.93,-4.06,64.8,0.982,-2.77,-1.77,63.3,0.943,-3.77,-2.6,64.1,0.913,-2.91,-1.19,72.6,0.844,
-1.92,-4.08,64.9,0.983,-2.8,-1.78,63.3,0.941,-3.82,-2.61,64.1,0.911,-2.92,-1.18,72.4,0.842,
-1.97,-4.02,64.6,0.984,-2.81,-1.78,63.3,0.944,-3.84,-2.62,64,0.91,-2.89,-1.15,72.5,0.843,
-1.9,-3.94,64.5,0.986,-2.81,-1.78,63.3,0.942,-3.85,-2.63,64.1,0.911,-2.89,-1.15,72.5,0.845,
-1.83,-4.03,65.1,0.981,-2.83,-1.78,63.4,0.943,-3.9,-2.65,64,0.909,-2.93,-1.18,72.5,0.844,
-1.89,-4.04,65,0.98,-2.84,-1.78,63.3,0.944,-3.91,-2.65,64,0.908,-2.93,-1.18,72.5,0.844,
-1.97,-4.05,64.8,0.979,-2.86,-1.78,63.3,0.943,-3.91,-2.65,64,0.908,-2.94,-1.18,72.5,0.842,
-1.93,-4.01,64.8,0.979,-2.85,-1.78,63.3,0.944,-3.93,-2.67,64,0.908,-2.94,-1.18,72.4,0.844,
-1.87,-3.98,64.9,0.984,-2.87,-1.8,63.3,0.943,-3.97,-2.7,64.1,0.907,-2.98,-1.21,72.5,0.843,
-1.91,-3.99,64.9,0.981,-2.9,-1.8,63.2,0.94,-3.98,-2.7,64,0.907,-3,-1.24,72.6,0.841,
-1.9,-3.96,64.8,0.981,-2.87,-1.79,63.3,0.943,-3.97,-2.7,64,0.908,-2.99,-1.23,72.5,0.843,
-1.9,-3.96,64.8,0.981,-2.88,-1.8,63.4,0.942,-3.99,-2.72,64.1,0.907,-3,-1.23,72.5,0.841,
-1.89,-3.95,64.8,0.982,-2.91,-1.78,63.1,0.943,-4.02,-2.73,64.1,0.906,-3,-1.23,72.5,0.841,
-1.92,-3.96,64.8,0.979,-2.9,-1.79,63.3,0.943,-4.03,-2.74,64.1,0.905,-2.99,-1.22,72.6,0.841,
-1.89,-3.89,64.7,0.983,-2.9,-1.8,63.3,0.942,-4.03,-2.74,64.1,0.906,-2.99,-1.21,72.6,0.841,
-1.93,-3.9,64.6,0.982,-2.93,-1.79,63.2,0.941,-4.06,-2.75,64.1,0.905,-3,-1.23,72.7,0.839,
-1.95,-3.88,64.5,0.985,-2.94,-1.79,63.3,0.942,-4.09,-2.75,64,0.904,-3.02,-1.21,72.4,0.838,
-1.97,-3.87,64.3,0.983,-2.92,-1.8,63.3,0.943,-4.06,-2.75,64.1,0.905,-2.99,-1.21,72.6,0.839,
-1.94,-3.94,64.7,0.981,-2.95,-1.81,63.3,0.942,-4.08,-2.75,64.1,0.905,-3,-1.2,72.5,0.838,
-1.95,-3.93,64.7,0.979,-2.96,-1.8,63.2,0.941,-4.09,-2.75,64,0.903,-3.01,-1.19,72.5,0.839,
-2.01,-3.82,64.2,0.982,-2.96,-1.8,63.3,0.941,-4.07,-2.74,64.1,0.904,-3,-1.19,72.6,0.838,
-1.98,-3.89,64.5,0.981,-2.95,-1.78,63.2,0.941,-4.06,-2.72,64.1,0.904,-2.98,-1.17,72.6,0.837,
-2.02,-3.87,64.4,0.981,-2.97,-1.77,63.2,0.94,-4.07,-2.7,64,0.904,-2.97,-1.17,72.8,0.838,
-2.04,-3.82,64.3,0.983,-2.97,-1.77,63.2,0.941,-4.08,-2.7,64,0.905,-2.98,-1.16,72.7,0.837,
-1.99,-3.79,64.3,0.981,-2.96,-1.77,63.2,0.94,-4.08,-2.72,64.1,0.908,-2.98,-1.16,72.6,0.84,
-2.06,-3.83,64.2,0.981,-2.99,-1.78,63.2,0.94,-4.1,-2.73,64,0.907,-2.98,-1.16,72.6,0.838,
-2.14,-3.93,64.4,0.98,-3.04,-1.82,63.2,0.938,-4.13,-2.76,64.1,0.907,-2.99,-1.16,72.6,0.839,
-2.18,-3.97,64.4,0.981,-3.09,-1.84,63,0.937,-4.16,-2.78,64.1,0.907,-2.98,-1.16,72.6,0.839,
-2.18,-4.02,64.5,0.985,-3.12,-1.88,63.1,0.936,-4.19,-2.82,64.1,0.907,-2.97,-1.15,72.5,0.839,
-2.2,-4.05,64.5,0.982,-3.16,-1.92,63.2,0.935,-4.21,-2.86,64.3,0.905,-2.98,-1.16,72.5,0.837,
-2.2,-4.01,64.4,0.982,-3.18,-1.93,63.1,0.934,-4.23,-2.85,64.2,0.905,-2.99,-1.16,72.5,0.837,
-2.09,-3.96,64.6,0.985,-3.15,-1.92,63.1,0.935,-4.2,-2.85,64.2,0.907,-2.97,-1.16,72.6,0.838,
-2.07,-3.87,64.3,0.985,-3.13,-1.9,63.2,0.937,-4.2,-2.84,64.2,0.906,-2.98,-1.18,72.7,0.838,
-2.03,-3.84,64.5,0.985,-3.12,-1.87,63.3,0.938,-4.18,-2.82,64.2,0.907,-3.01,-1.18,72.7,0.837,
-2.02,-3.86,64.6,0.983,-3.1,-1.85,63.2,0.936,-4.16,-2.81,64.3,0.908,-2.99,-1.19,72.7,0.837,
-2.08,-3.85,64.3,0.982,-3.09,-1.86,63.3,0.938,-4.15,-2.81,64.3,0.909,-3,-1.19,72.8,0.839,
-2.13,-3.92,64.4,0.98,-3.11,-1.86,63.2,0.938,-4.17,-2.84,64.3,0.907,-3.02,-1.18,72.5,0.837,
-2.22,-3.95,64.3,0.976,-3.14,-1.86,63.1,0.936,-4.18,-2.84,64.3,0.908,-3.01,-1.18,72.5,0.836,
-2.25,-3.99,64.3,0.974,-3.13,-1.88,63.2,0.936,-4.17,-2.85,64.4,0.908,-2.99,-1.19,72.7,0.837,
-2.29,-3.98,64.1,0.976,-3.15,-1.89,63.2,0.937,-4.18,-2.87,64.5,0.908,-2.99,-1.19,72.7,0.836,
-2.32,-3.96,64,0.977,-3.18,-1.91,63.2,0.936,-4.21,-2.88,64.3,0.907,-3.02,-1.19,72.5,0.836,
-2.27,-3.95,64.1,0.979,-3.17,-1.91,63.1,0.937,-4.2,-2.89,64.4,0.907,-3,-1.2,72.6,0.836,
-2.31,-3.97,64,0.975,-3.17,-1.92,63.3,0.937,-4.2,-2.9,64.5,0.906,-3.01,-1.2,72.5,0.838,
-2.3,-3.98,64.1,0.976,-3.17,-1.92,63.3,0.937,-4.22,-2.91,64.4,0.905,-3.02,-1.2,72.5,0.839,
-2.34,-3.96,64,0.975,-3.19,-1.92,63.2,0.936,-4.22,-2.9,64.3,0.906,-3.03,-1.2,72.5,0.836,
-2.31,-3.96,64.1,0.978,-3.18,-1.93,63.3,0.936,-4.22,-2.91,64.3,0.906,-3.02,-1.2,72.5,0.837,
-2.39,-3.93,63.9,0.977,-3.2,-1.93,63.3,0.936,-4.26,-2.92,64.3,0.905,-3.04,-1.2,72.5,0.836,
-2.47,-3.99,63.8,0.972,-3.21,-1.94,63.3,0.936,-4.27,-2.94,64.3,0.904,-3.05,-1.21,72.4,0.836,
-2.46,-4.01,63.9,0.971,-3.19,-1.94,63.3,0.935,-4.27,-2.94,64.3,0.905,-3.06,-1.23,72.5,0.836,
-2.52,-3.98,63.5,0.97,-3.2,-1.94,63.3,0.937,-4.31,-2.95,64.2,0.904,-3.08,-1.25,72.5,0.837,
-2.45,-4.02,63.9,0.972,-3.22,-1.94,63.2,0.935,-4.32,-2.96,64.3,0.903,-3.09,-1.25,72.5,0.837,
-2.47,-4.02,63.9,0.972,-3.22,-1.93,63.1,0.934,-4.38,-3.01,64.2,0.903,-3.2,-1.34,72.5,0.835,
-2.38,-4.08,64.3,0.973,-3.18,-1.92,63.4,0.934,-4.34,-2.99,64.2,0.901,-3.21,-1.35,72.4,0.834,
-2.38,-3.99,64.1,0.973,-3.12,-1.82,63.1,0.937,-4.23,-2.89,64.2,0.902,-3.23,-1.35,72.4,0.835,
-2.18,-3.79,64.1,0.976,-2.91,-1.65,63.1,0.94,-4.01,-2.7,64.2,0.905,-3.21,-1.35,72.5,0.836,
-1.9,-3.56,64.1,0.988,-2.77,-1.56,63.2,0.94,-3.83,-2.57,64.1,0.908,-3.17,-1.32,72.5,0.839,
-1.83,-3.58,64.3,0.99,-2.74,-1.54,63.2,0.94,-3.78,-2.54,64.2,0.909,-3.16,-1.33,72.6,0.841,
-1.85,-3.5,64.1,0.992,-2.72,-1.52,63.2,0.942,-3.76,-2.51,64.2,0.909,-3.16,-1.31,72.3,0.842,
-1.83,-3.54,64.3,0.991,-2.7,-1.48,63.2,0.942,-3.73,-2.48,64.1,0.909,-3.15,-1.28,72.3,0.843,
-1.79,-3.47,64.2,0.995,-2.65,-1.47,63.3,0.944,-3.69,-2.45,64.1,0.911,-3.15,-1.29,72.4,0.841,
-1.74,-3.54,64.5,0.992,-2.62,-1.43,63.3,0.945,-3.66,-2.42,64.2,0.909,-3.13,-1.27,72.3,0.842,
-1.75,-3.5,64.5,0.993,-2.62,-1.4,63.2,0.946,-3.66,-2.4,64.2,0.909,-3.12,-1.27,72.4,0.843,
-1.71,-3.44,64.4,0.996,-2.55,-1.38,63.4,0.948,-3.59,-2.37,64.3,0.909,-3.07,-1.22,72.3,0.843,
-1.71,-3.46,64.4,0.995,-2.54,-1.34,63.2,0.948,-3.57,-2.34,64.3,0.908,-3.06,-1.19,72.2,0.842,
-1.74,-3.41,64.3,0.993,-2.51,-1.32,63.3,0.952,-3.54,-2.31,64.3,0.909,-3.02,-1.17,72.3,0.844,
-1.7,-3.36,64.2,0.997,-2.51,-1.31,63.3,0.95,-3.52,-2.28,64.3,0.909,-3.03,-1.17,72.2,0.843,
-1.71,-3.32,64.1,0.997,-2.52,-1.32,63.2,0.948,-3.5,-2.28,64.3,0.911,-3.05,-1.21,72.3,0.842,
-1.73,-3.32,64,0.995,-2.54,-1.31,63.1,0.948,-3.51,-2.27,64.2,0.911,-3.08,-1.24,72.3,0.842,
-1.69,-3.33,64.3,0.997,-2.55,-1.31,63.1,0.946,-3.5,-2.27,64.3,0.91,-3.08,-1.24,72.4,0.84,
-1.67,-3.36,64.5,0.994,-2.53,-1.3,63.1,0.948,-3.46,-2.25,64.4,0.913,-3.06,-1.22,72.4,0.841,
-1.69,-3.35,64.4,0.994,-2.52,-1.28,63.2,0.948,-3.46,-2.24,64.3,0.912,-3.06,-1.21,72.3,0.841,
-1.75,-3.3,64,0.992,-2.53,-1.27,63.1,0.948,-3.46,-2.24,64.3,0.912,-3.06,-1.21,72.3,0.841,
-1.72,-3.31,64.2,0.994,-2.53,-1.26,63.1,0.947,-3.46,-2.23,64.3,0.913,-3.08,-1.21,72.3,0.839,
-1.72,-3.27,64,0.994,-2.51,-1.25,63.1,0.949,-3.43,-2.23,64.4,0.914,-3.07,-1.22,72.4,0.839,
-1.75,-3.27,64,0.994,-2.52,-1.26,63.1,0.948,-3.44,-2.23,64.4,0.913,-3.07,-1.22,72.2,0.84,
-1.77,-3.32,64.1,0.991,-2.53,-1.25,63.1,0.949,-3.47,-2.22,64.3,0.913,-3.09,-1.22,72.2,0.839,
-1.72,-3.32,64.3,0.992,-2.52,-1.26,63.2,0.948,-3.45,-2.22,64.4,0.913,-3.07,-1.23,72.4,0.84,
-1.69,-3.31,64.3,0.995,-2.51,-1.25,63.1,0.949,-3.43,-2.22,64.4,0.914,-3.08,-1.23,72.3,0.839,
-1.74,-3.31,64.2,0.992,-2.53,-1.24,63,0.949,-3.45,-2.23,64.4,0.913,-3.08,-1.25,72.3,0.837,
-1.77,-3.25,64,0.993,-2.53,-1.24,63,0.949,-3.45,-2.22,64.5,0.912,-3.08,-1.24,72.3,0.838,
-1.69,-3.33,64.4,0.992,-2.51,-1.24,63.1,0.949,-3.43,-2.22,64.5,0.913,-3.07,-1.24,72.3,0.838,
-1.72,-3.28,64.2,0.993,-2.51,-1.24,63.1,0.949,-3.44,-2.22,64.4,0.913,-3.07,-1.23,72.3,0.839,
-1.73,-3.26,64.1,0.993,-2.53,-1.23,63.1,0.948,-3.44,-2.2,64.4,0.913,-3.07,-1.23,72.4,0.837,
-1.72,-3.28,64.3,0.991,-2.5,-1.23,63.2,0.949,-3.42,-2.18,64.4,0.914,-3.05,-1.2,72.3,0.839,
-1.77,-3.19,64,0.991,-2.49,-1.22,63.2,0.949,-3.39,-2.17,64.4,0.915,-3.02,-1.19,72.3,0.838,
-1.72,-3.22,64.2,0.992,-2.5,-1.2,63.1,0.95,-3.39,-2.16,64.4,0.914,-3.01,-1.18,72.4,0.839,
-1.72,-3.21,64.2,0.993,-2.51,-1.2,63.1,0.948,-3.38,-2.16,64.5,0.915,-3.01,-1.17,72.3,0.839,
-1.7,-3.18,64,0.994,-2.48,-1.19,63.1,0.949,-3.36,-2.14,64.4,0.917,-2.99,-1.17,72.4,0.84,
-1.7,-3.15,64,0.996,-2.49,-1.19,63.1,0.951,-3.37,-2.15,64.4,0.916,-3,-1.17,72.2,0.841,
-1.74,-3.19,64,0.991,-2.51,-1.19,63,0.95,-3.39,-2.16,64.4,0.916,-3.01,-1.2,72.4,0.84,
-1.73,-3.14,63.8,0.995,-2.51,-1.2,62.9,0.949,-3.37,-2.16,64.4,0.917,-3.01,-1.2,72.4,0.839,
-1.74,-3.19,63.9,0.991,-2.49,-1.22,63.1,0.949,-3.38,-2.17,64.4,0.916,-3.01,-1.21,72.4,0.839,
-1.71,-3.22,64.1,0.993,-2.51,-1.22,63,0.949,-3.39,-2.19,64.5,0.916,-3.02,-1.24,72.5,0.837,
-1.73,-3.22,64.1,0.991,-2.52,-1.23,63,0.949,-3.41,-2.18,64.3,0.916,-3.03,-1.24,72.6,0.837,
-1.7,-3.2,64,0.993,-2.49,-1.23,63.1,0.948,-3.39,-2.19,64.3,0.917,-3.02,-1.24,72.6,0.838,
-1.69,-3.26,64.3,0.991,-2.51,-1.24,63.1,0.948,-3.41,-2.18,64.2,0.917,-3.03,-1.25,72.5,0.838,
-1.71,-3.21,64.1,0.994,-2.52,-1.24,63,0.949,-3.42,-2.18,64.2,0.916,-3.03,-1.24,72.5,0.838,
-1.73,-3.23,64.1,0.99,-2.5,-1.22,63.1,0.951,-3.39,-2.17,64.3,0.917,-3.01,-1.22,72.5,0.839,
-1.7,-3.22,64.2,0.992,-2.51,-1.22,63,0.95,-3.39,-2.15,64.2,0.916,-3,-1.21,72.5,0.839,
-1.7,-3.21,64.2,0.991,-2.51,-1.22,63.1,0.95,-3.39,-2.14,64.2,0.917,-3,-1.21,72.6,0.839,
-1.72,-3.14,64,0.994,-2.51,-1.2,63,0.95,-3.38,-2.13,64.2,0.917,-3.01,-1.19,72.4,0.84,
-1.65,-3.17,64.2,0.995,-2.49,-1.21,63.1,0.949,-3.37,-2.12,64.2,0.919,-3,-1.19,72.4,0.841,
-1.71,-3.13,64,0.994,-2.52,-1.19,62.9,0.95,-3.39,-2.13,64.2,0.918,-3.02,-1.21,72.5,0.841,
-1.73,-3.13,64,0.994,-2.53,-1.21,63,0.947,-3.42,-2.13,64.1,0.919,-3.04,-1.22,72.5,0.84,
-1.74,-3.17,64,0.992,-2.53,-1.2,62.9,0.95,-3.42,-2.16,64.3,0.919,-3.06,-1.24,72.4,0.84,
-1.73,-3.16,64,0.994,-2.54,-1.21,63,0.949,-3.44,-2.17,64.2,0.918,-3.07,-1.26,72.4,0.839,
-1.76,-3.22,64,0.992,-2.57,-1.22,62.9,0.949,-3.46,-2.18,64.1,0.917,-3.1,-1.27,72.4,0.838,
-1.77,-3.22,64.2,0.993,-2.59,-1.23,62.9,0.948,-3.5,-2.18,63.9,0.917,-3.12,-1.28,72.4,0.839,
-1.73,-3.19,64,0.997,-2.56,-1.23,63,0.95,-3.47,-2.2,64.2,0.918,-3.11,-1.28,72.5,0.841,
-1.72,-3.27,64.4,0.993,-2.6,-1.23,62.9,0.948,-3.5,-2.19,64.1,0.917,-3.14,-1.28,72.4,0.839,
-1.76,-3.19,64.1,0.998,-2.6,-1.23,63,0.95,-3.52,-2.2,64,0.916,-3.15,-1.29,72.4,0.84,
-1.81,-3.19,64,0.996,-2.61,-1.23,63,0.949,-3.53,-2.21,64.1,0.916,-3.17,-1.3,72.3,0.839,
-1.82,-3.2,64,0.994,-2.6,-1.22,62.9,0.95,-3.52,-2.2,64.1,0.916,-3.17,-1.29,72.3,0.841,
-1.85,-3.13,63.7,0.998,-2.63,-1.22,62.9,0.949,-3.54,-2.2,64,0.916,-3.19,-1.3,72.3,0.839,
-1.84,-3.25,64.2,0.992,-2.64,-1.23,63.1,0.948,-3.55,-2.2,64.1,0.915,-3.2,-1.29,72.2,0.839,
-1.86,-3.18,64,0.994,-2.64,-1.22,63,0.948,-3.55,-2.19,64,0.915,-3.19,-1.28,72.4,0.84,
-1.81,-3.18,64.1,0.996,-2.64,-1.2,63,0.949,-3.54,-2.16,64,0.916,-3.18,-1.27,72.2,0.841,
-1.88,-3.13,63.8,0.995,-2.66,-1.18,62.8,0.948,-3.54,-2.15,64,0.916,-3.17,-1.26,72.4,0.842,
-1.85,-3.16,64,0.995,-2.66,-1.18,62.8,0.948,-3.55,-2.14,63.9,0.916,-3.18,-1.25,72.3,0.842,
-1.88,-3.12,63.9,0.995,-2.66,-1.18,62.9,0.948,-3.53,-2.13,63.9,0.916,-3.17,-1.24,72.3,0.843,
-1.87,-3.16,64,0.993,-2.67,-1.16,62.7,0.948,-3.52,-2.12,63.9,0.917,-3.17,-1.23,72.3,0.843,
-1.86,-3.09,63.9,0.997,-2.68,-1.15,62.7,0.947,-3.52,-2.11,64,0.917,-3.17,-1.22,72.3,0.845,
-1.86,-3.1,63.9,0.997,-2.67,-1.14,62.8,0.948,-3.53,-2.1,63.9,0.918,-3.17,-1.23,72.3,0.845,
-1.83,-3.11,64.1,0.995,-2.66,-1.13,62.8,0.948,-3.5,-2.1,64,0.919,-3.16,-1.23,72.3,0.845,
-1.83,-3.11,64.1,0.996,-2.66,-1.14,62.9,0.949,-3.52,-2.1,63.9,0.918,-3.2,-1.23,72.3,0.846,
-1.86,-3.08,63.9,0.995,-2.67,-1.13,62.8,0.949,-3.54,-2.12,64,0.918,-3.21,-1.26,72.4,0.844,
-1.83,-3.15,64.2,0.992,-2.66,-1.15,62.9,0.949,-3.52,-2.14,64.1,0.92,-3.21,-1.27,72.4,0.843,
-1.9,-3.08,63.8,0.992,-2.66,-1.15,62.9,0.948,-3.53,-2.14,64,0.92,-3.22,-1.28,72.4,0.844,
-1.88,-3.1,64,0.994,-2.68,-1.16,62.9,0.947,-3.55,-2.16,64,0.919,-3.25,-1.31,72.3,0.842,
-1.89,-3.19,64.2,0.99,-2.67,-1.18,63.1,0.947,-3.54,-2.18,64.1,0.92,-3.27,-1.32,72.3,0.841,
-1.87,-3.17,64.1,0.992,-2.67,-1.16,62.9,0.947,-3.52,-2.18,64.1,0.921,-3.24,-1.33,72.4,0.842,
-1.91,-3.17,64,0.991,-2.68,-1.17,63,0.946,-3.52,-2.19,64,0.92,-3.25,-1.33,72.4,0.841,
-1.92,-3.21,64.2,0.989,-2.69,-1.18,62.9,0.946,-3.53,-2.2,64.1,0.919,-3.26,-1.34,72.3,0.841,
-1.92,-3.21,64.1,0.989,-2.66,-1.17,63,0.946,-3.49,-2.2,64.2,0.92,-3.23,-1.33,72.3,0.843,
-1.92,-3.2,64,0.989,-2.65,-1.18,63,0.947,-3.48,-2.21,64.2,0.919,-3.23,-1.33,72.3,0.842,
-1.95,-3.2,63.9,0.988,-2.66,-1.18,62.9,0.948,-3.48,-2.22,64.2,0.919,-3.23,-1.35,72.4,0.841,
-1.92,-3.16,63.8,0.993,-2.64,-1.18,63,0.948,-3.45,-2.22,64.2,0.92,-3.23,-1.34,72.3,0.842,
-1.89,-3.18,64,0.991,-2.62,-1.17,62.9,0.949,-3.42,-2.22,64.2,0.92,-3.2,-1.34,72.4,0.843,
-1.89,-3.19,64,0.99,-2.61,-1.17,63,0.949,-3.42,-2.21,64.1,0.92,-3.2,-1.34,72.3,0.842,
-1.86,-3.17,64,0.992,-2.59,-1.16,62.9,0.95,-3.4,-2.21,64.3,0.92,-3.19,-1.34,72.5,0.842,
-1.81,-3.18,64.1,0.99,-2.54,-1.16,63.1,0.95,-3.34,-2.2,64.3,0.922,-3.15,-1.33,72.4,0.843,
-1.82,-3.13,64,0.991,-2.53,-1.15,63.2,0.951,-3.32,-2.18,64.2,0.922,-3.14,-1.31,72.3,0.843,
-1.78,-3.14,64.1,0.991,-2.53,-1.14,63,0.951,-3.3,-2.18,64.3,0.922,-3.12,-1.3,72.4,0.843,
-1.8,-3.1,63.8,0.99,-2.5,-1.14,63.1,0.95,-3.24,-2.17,64.3,0.924,-3.08,-1.29,72.5,0.846,
-1.73,-3.12,64,0.991,-2.48,-1.13,63.1,0.95,-3.22,-2.16,64.3,0.924,-3.06,-1.28,72.4,0.845,
-1.7,-3.08,63.9,0.993,-2.45,-1.14,63.3,0.951,-3.2,-2.16,64.3,0.924,-3.05,-1.29,72.5,0.844,
-1.67,-3.11,64,0.991,-2.43,-1.13,63.3,0.953,-3.18,-2.17,64.3,0.925,-3.04,-1.29,72.5,0.844,
-1.67,-3.07,63.8,0.991,-2.41,-1.14,63.3,0.95,-3.15,-2.19,64.4,0.926,-3.03,-1.3,72.6,0.844,
-1.63,-3.09,63.8,0.993,-2.41,-1.15,63.1,0.952,-3.18,-2.21,64.3,0.926,-3.04,-1.32,72.5,0.844,
-1.65,-3.12,63.8,0.992,-2.42,-1.17,63,0.951,-3.18,-2.24,64.2,0.925,-3.04,-1.34,72.6,0.842,
-1.62,-3.17,63.9,0.988,-2.36,-1.21,63.3,0.95,-3.14,-2.25,64.3,0.926,-3.03,-1.35,72.5,0.843,
-1.59,-3.15,63.7,0.992,-2.38,-1.22,63.2,0.95,-3.16,-2.27,64.2,0.925,-3.04,-1.37,72.5,0.842,
-1.6,-3.18,63.7,0.991,-2.37,-1.25,63.3,0.95,-3.17,-2.3,64.3,0.923,-3.05,-1.39,72.6,0.841,
-1.58,-3.22,63.7,0.99,-2.36,-1.25,63,0.95,-3.15,-2.31,64.2,0.925,-3.04,-1.4,72.6,0.84,
-1.59,-3.2,63.5,0.99,-2.34,-1.28,63.2,0.95,-3.15,-2.33,64.2,0.923,-3.04,-1.41,72.5,0.839,
-1.55,-3.26,63.7,0.99,-2.34,-1.29,63.3,0.951,-3.17,-2.34,64.1,0.922,-3.06,-1.42,72.5,0.839,
-1.55,-3.26,63.6,0.991,-2.35,-1.31,63.3,0.949,-3.17,-2.35,64.2,0.922,-3.06,-1.43,72.5,0.839,
-1.51,-3.28,63.6,0.989,-2.3,-1.31,63.3,0.95,-3.13,-2.34,64.2,0.923,-3.05,-1.42,72.6,0.839,
-1.52,-3.28,63.6,0.989,-2.3,-1.32,63.2,0.95,-3.14,-2.35,64.2,0.923,-3.05,-1.43,72.5,0.838,
-1.49,-3.32,63.7,0.989,-2.32,-1.34,63.4,0.949,-3.16,-2.36,64.2,0.922,-3.06,-1.43,72.5,0.84,
-1.52,-3.32,63.6,0.987,-2.3,-1.35,63.3,0.95,-3.15,-2.36,64.2,0.923,-3.06,-1.44,72.6,0.839,
-1.45,-3.38,63.8,0.986,-2.28,-1.36,63.3,0.951,-3.14,-2.38,64.2,0.922,-3.05,-1.44,72.5,0.84,
-1.47,-3.35,63.6,0.989,-2.29,-1.38,63.3,0.95,-3.16,-2.39,64.2,0.921,-3.07,-1.45,72.5,0.841,
-1.48,-3.39,63.7,0.988,-2.3,-1.38,63.3,0.949,-3.17,-2.4,64.2,0.921,-3.08,-1.46,72.6,0.839,
-1.46,-3.41,63.6,0.987,-2.26,-1.4,63.4,0.951,-3.16,-2.39,64.2,0.922,-3.07,-1.46,72.6,0.839,
-1.45,-3.44,63.7,0.986,-2.26,-1.41,63.4,0.951,-3.16,-2.4,64.2,0.921,-3.07,-1.46,72.5,0.841,
-1.45,-3.43,63.5,0.988,-2.26,-1.43,63.5,0.95,-3.18,-2.39,64.1,0.921,-3.08,-1.46,72.5,0.841,
-1.41,-3.48,63.7,0.987,-2.27,-1.43,63.4,0.951,-3.18,-2.39,64.1,0.921,-3.08,-1.45,72.5,0.841,
-1.38,-3.46,63.7,0.988,-2.23,-1.42,63.4,0.951,-3.14,-2.38,64.2,0.922,-3.05,-1.45,72.6,0.842,
-1.36,-3.44,63.7,0.991,-2.23,-1.42,63.5,0.95,-3.15,-2.38,64.2,0.921,-3.05,-1.44,72.5,0.842,
-1.37,-3.46,63.7,0.988,-2.23,-1.42,63.4,0.951,-3.16,-2.38,64.2,0.921,-3.05,-1.44,72.6,0.843,
-1.34,-3.4,63.5,0.992,-2.2,-1.42,63.5,0.95,-3.12,-2.35,64.2,0.923,-3.03,-1.42,72.6,0.843,
-1.32,-3.38,63.4,0.991,-2.17,-1.42,63.5,0.952,-3.11,-2.34,64.1,0.923,-3.01,-1.41,72.5,0.844,
-1.25,-3.48,63.9,0.99,-2.18,-1.41,63.4,0.952,-3.11,-2.34,64.1,0.923,-3.01,-1.4,72.5,0.846,
-1.33,-3.42,63.4,0.99,-2.18,-1.41,63.5,0.952,-3.13,-2.33,64,0.924,-3.01,-1.41,72.6,0.845,
-1.25,-3.43,63.5,0.992,-2.14,-1.43,63.5,0.952,-3.1,-2.34,64.1,0.924,-3,-1.41,72.6,0.845,
-1.33,-3.45,63.3,0.989,-2.15,-1.45,63.5,0.952,-3.13,-2.37,64.1,0.923,-3.02,-1.43,72.5,0.845,
-1.3,-3.49,63.5,0.99,-2.17,-1.47,63.5,0.951,-3.15,-2.37,64.1,0.922,-3.03,-1.44,72.5,0.844,
-1.23,-3.53,63.7,0.992,-2.13,-1.48,63.7,0.952,-3.13,-2.38,64.1,0.923,-3.04,-1.44,72.5,0.843,
-1.23,-3.57,63.7,0.99,-2.14,-1.48,63.5,0.952,-3.15,-2.39,64.1,0.921,-3.04,-1.46,72.6,0.844,
-1.26,-3.61,63.7,0.989,-2.15,-1.5,63.5,0.952,-3.17,-2.4,64.1,0.921,-3.05,-1.48,72.7,0.842,
-1.23,-3.66,63.8,0.989,-2.14,-1.52,63.6,0.951,-3.17,-2.41,64.1,0.92,-3.06,-1.47,72.5,0.842,
-1.24,-3.61,63.6,0.99,-2.11,-1.53,63.8,0.952,-3.16,-2.4,64,0.921,-3.05,-1.47,72.5,0.844,
-1.22,-3.67,63.8,0.99,-2.13,-1.54,63.7,0.95,-3.18,-2.41,64,0.919,-3.06,-1.49,72.6,0.842,
-1.2,-3.7,63.9,0.99,-2.13,-1.55,63.7,0.952,-3.2,-2.42,64,0.918,-3.07,-1.49,72.6,0.842,
-1.2,-3.69,63.8,0.99,-2.1,-1.55,63.8,0.953,-3.18,-2.43,64,0.919,-3.08,-1.5,72.6,0.841,
-1.18,-3.66,63.7,0.992,-2.11,-1.56,63.7,0.952,-3.2,-2.42,63.9,0.918,-3.08,-1.51,72.7,0.842,
-1.18,-3.74,63.8,0.988,-2.12,-1.57,63.7,0.952,-3.22,-2.44,64,0.918,-3.11,-1.52,72.6,0.842,
-1.2,-3.69,63.6,0.991,-2.14,-1.58,63.7,0.951,-3.25,-2.45,63.9,0.918,-3.13,-1.53,72.6,0.841,
-1.17,-3.69,63.6,0.992,-2.09,-1.59,63.8,0.952,-3.21,-2.46,64,0.919,-3.13,-1.53,72.6,0.84,
-1.17,-3.76,63.8,0.989,-2.11,-1.59,63.8,0.952,-3.23,-2.47,64,0.917,-3.13,-1.54,72.7,0.842,
-1.15,-3.78,63.9,0.991,-2.11,-1.6,63.8,0.953,-3.24,-2.48,64,0.917,-3.14,-1.54,72.7,0.843,
-1.18,-3.72,63.5,0.993,-2.13,-1.61,63.8,0.951,-3.25,-2.48,64.1,0.917,-3.16,-1.54,72.6,0.84,
-1.13,-3.73,63.7,0.994,-2.09,-1.61,64.1,0.951,-3.21,-2.48,64.1,0.918,-3.13,-1.53,72.6,0.844,
-1.17,-3.78,63.8,0.989,-2.1,-1.61,64,0.952,-3.23,-2.48,64.1,0.917,-3.15,-1.53,72.6,0.842,
-1.17,-3.77,63.7,0.992,-2.12,-1.6,63.9,0.952,-3.24,-2.49,64.2,0.916,-3.16,-1.54,72.7,0.84,
-1.22,-3.77,63.5,0.988,-2.1,-1.63,64.2,0.951,-3.23,-2.48,64.1,0.917,-3.16,-1.52,72.6,0.841,
-1.16,-3.77,63.7,0.99,-2.09,-1.61,63.9,0.95,-3.2,-2.47,64.2,0.917,-3.14,-1.5,72.6,0.842,
-1.14,-3.81,63.9,0.989,-2.08,-1.6,64.1,0.953,-3.2,-2.46,64.2,0.917,-3.13,-1.5,72.7,0.844,
-1.16,-3.74,63.6,0.992,-2.1,-1.58,64.1,0.952,-3.2,-2.46,64.2,0.917,-3.15,-1.47,72.4,0.843,
-1.11,-3.79,64,0.99,-2.1,-1.57,63.9,0.952,-3.18,-2.44,64.3,0.918,-3.13,-1.47,72.5,0.842,
-1.12,-3.75,63.8,0.989,-2.07,-1.56,64,0.954,-3.16,-2.43,64.3,0.918,-3.11,-1.45,72.5,0.845,
-1.07,-3.74,63.9,0.993,-2.09,-1.55,63.9,0.953,-3.15,-2.43,64.4,0.918,-3.11,-1.44,72.5,0.845,
-1.13,-3.69,63.6,0.992,-2.09,-1.55,64,0.952,-3.15,-2.43,64.4,0.919,-3.11,-1.43,72.6,0.845,
-1.12,-3.71,63.6,0.989,-2.06,-1.54,63.9,0.953,-3.11,-2.43,64.5,0.92,-3.09,-1.42,72.6,0.846,
-1.06,-3.74,64,0.991,-2.07,-1.55,64,0.953,-3.12,-2.44,64.5,0.921,-3.11,-1.43,72.5,0.845,
-1.09,-3.76,63.9,0.99,-2.07,-1.55,64.1,0.955,-3.14,-2.45,64.5,0.92,-3.13,-1.44,72.5,0.844,
-1.08,-3.78,63.9,0.991,-2.07,-1.57,64.1,0.953,-3.14,-2.47,64.5,0.92,-3.13,-1.46,72.5,0.845,
-1.12,-3.73,63.5,0.99,-2.07,-1.58,64,0.952,-3.12,-2.48,64.6,0.921,-3.13,-1.47,72.5,0.844,
-1.12,-3.8,63.8,0.988,-2.08,-1.6,64.1,0.952,-3.14,-2.5,64.6,0.921,-3.15,-1.48,72.6,0.842,
-1.09,-3.86,64,0.988,-2.09,-1.62,64.3,0.951,-3.17,-2.5,64.5,0.92,-3.16,-1.49,72.6,0.841,
-1.12,-3.83,63.8,0.987,-2.07,-1.62,64.2,0.952,-3.13,-2.5,64.6,0.922,-3.15,-1.49,72.6,0.841,
-1.13,-3.9,64,0.984,-2.08,-1.62,64.2,0.951,-3.14,-2.51,64.5,0.92,-3.15,-1.51,72.7,0.842,
-1.13,-3.9,64,0.985,-2.08,-1.64,64.2,0.953,-3.16,-2.53,64.5,0.919,-3.16,-1.51,72.7,0.842,
-1.11,-3.93,64.1,0.986,-2.09,-1.65,64.3,0.95,-3.15,-2.53,64.5,0.92,-3.16,-1.52,72.7,0.841,
-1.11,-3.88,63.9,0.987,-2.07,-1.65,64.2,0.952,-3.12,-2.53,64.5,0.921,-3.14,-1.52,72.7,0.842,
-1.08,-3.91,64.1,0.988,-2.07,-1.66,64.3,0.952,-3.14,-2.54,64.5,0.92,-3.15,-1.52,72.7,0.841,
-1.1,-3.9,64,0.989,-2.07,-1.69,64.4,0.951,-3.15,-2.54,64.5,0.919,-3.15,-1.53,72.6,0.842,
-1.09,-3.93,64,0.986,-2.06,-1.68,64.3,0.952,-3.12,-2.52,64.5,0.921,-3.13,-1.53,72.7,0.841,
-1.08,-3.89,63.9,0.988,-2.06,-1.69,64.3,0.95,-3.11,-2.52,64.5,0.92,-3.12,-1.52,72.7,0.842,
-1.11,-3.84,63.7,0.99,-2.05,-1.69,64.4,0.953,-3.12,-2.52,64.4,0.92,-3.12,-1.51,72.6,0.842,
-1.1,-3.87,63.8,0.988,-2.06,-1.68,64.4,0.951,-3.11,-2.49,64.4,0.922,-3.1,-1.51,72.8,0.843,
-1.09,-3.85,63.7,0.987,-2.03,-1.68,64.5,0.952,-3.08,-2.49,64.4,0.921,-3.08,-1.49,72.6,0.843,
-1.07,-3.85,63.8,0.988,-2.03,-1.68,64.4,0.952,-3.08,-2.46,64.4,0.922,-3.06,-1.48,72.8,0.844,
-1.08,-3.86,63.9,0.986,-2.03,-1.67,64.4,0.952,-3.08,-2.46,64.3,0.922,-3.07,-1.46,72.5,0.845,
-1.05,-3.83,63.7,0.988,-2,-1.66,64.5,0.953,-3.05,-2.44,64.3,0.924,-3.04,-1.46,72.7,0.845,
-1.04,-3.83,63.9,0.988,-2.01,-1.67,64.5,0.951,-3.06,-2.44,64.3,0.923,-3.04,-1.45,72.6,0.845,
-1.05,-3.77,63.7,0.991,-1.99,-1.66,64.4,0.954,-3.07,-2.45,64.3,0.923,-3.04,-1.46,72.6,0.846,
-1.06,-3.79,63.6,0.99,-2,-1.67,64.4,0.952,-3.06,-2.47,64.4,0.924,-3.05,-1.48,72.5,0.847,
-1.01,-3.92,64.2,0.987,-1.99,-1.69,64.6,0.952,-3.06,-2.48,64.4,0.924,-3.05,-1.49,72.6,0.845,
-1.02,-3.97,64.2,0.985,-2.02,-1.71,64.6,0.951,-3.09,-2.49,64.3,0.923,-3.07,-1.52,72.7,0.844,
-0.99,-4.02,64.5,0.987,-2.04,-1.73,64.6,0.951,-3.1,-2.52,64.4,0.923,-3.09,-1.53,72.5,0.844,
-1.02,-3.98,64.2,0.988,-2.02,-1.74,64.6,0.95,-3.09,-2.53,64.4,0.924,-3.08,-1.55,72.6,0.843,
-1.07,-3.95,64,0.988,-2.05,-1.75,64.6,0.95,-3.11,-2.54,64.4,0.923,-3.1,-1.56,72.6,0.843,
-1.12,-4,64,0.984,-2.06,-1.77,64.7,0.95,-3.14,-2.55,64.3,0.922,-3.11,-1.58,72.7,0.842,
-1.11,-4.04,64.1,0.984,-2.06,-1.76,64.5,0.95,-3.11,-2.57,64.5,0.923,-3.11,-1.58,72.6,0.843,
-1.1,-4.03,64.1,0.985,-2.06,-1.76,64.5,0.95,-3.12,-2.56,64.4,0.923,-3.11,-1.58,72.7,0.843,
-1.08,-4.12,64.4,0.983,-2.08,-1.77,64.4,0.951,-3.15,-2.57,64.4,0.921,-3.12,-1.59,72.5,0.843,
-1.13,-4.07,64.1,0.983,-2.07,-1.77,64.6,0.951,-3.16,-2.56,64.3,0.922,-3.13,-1.59,72.6,0.842,
-1.04,-4.06,64.4,0.986,-2.05,-1.75,64.5,0.951,-3.13,-2.56,64.4,0.923,-3.1,-1.57,72.6,0.845,
-1.08,-4.13,64.5,0.982,-2.06,-1.76,64.6,0.951,-3.15,-2.57,64.4,0.921,-3.13,-1.58,72.5,0.844,
-1.12,-4.09,64.3,0.983,-2.08,-1.76,64.5,0.949,-3.17,-2.56,64.3,0.921,-3.14,-1.58,72.5,0.844,
-1.1,-4.1,64.4,0.984,-2.07,-1.76,64.7,0.95,-3.15,-2.56,64.4,0.922,-3.12,-1.57,72.6,0.844,
-1.08,-4.11,64.5,0.983,-2.08,-1.74,64.5,0.949,-3.15,-2.54,64.4,0.922,-3.11,-1.55,72.6,0.845,
-1.1,-4.03,64.2,0.986,-2.09,-1.74,64.5,0.949,-3.16,-2.53,64.3,0.921,-3.12,-1.54,72.5,0.845,
-1.1,-4.07,64.3,0.983,-2.09,-1.73,64.6,0.949,-3.16,-2.51,64.3,0.923,-3.12,-1.53,72.5,0.846,
-1.07,-4.04,64.4,0.985,-2.07,-1.73,64.7,0.948,-3.14,-2.52,64.4,0.923,-3.11,-1.53,72.6,0.847,
-1.1,-4,64.2,0.987,-2.1,-1.71,64.4,0.949,-3.16,-2.52,64.4,0.922,-3.13,-1.53,72.6,0.845,
-1.12,-4.01,64.2,0.986,-2.1,-1.72,64.5,0.949,-3.18,-2.53,64.4,0.922,-3.15,-1.54,72.5,0.846,
-1.11,-3.97,64.1,0.988,-2.08,-1.72,64.6,0.949,-3.18,-2.53,64.3,0.922,-3.16,-1.55,72.5,0.844,
-1.15,-3.94,63.8,0.988,-2.1,-1.71,64.5,0.95,-3.19,-2.54,64.4,0.922,-3.16,-1.56,72.6,0.844,
-1.11,-3.99,64.2,0.988,-2.11,-1.72,64.5,0.949,-3.21,-2.54,64.3,0.922,-3.18,-1.56,72.4,0.845,
-1.14,-4.03,64.1,0.986,-2.12,-1.72,64.4,0.949,-3.22,-2.55,64.3,0.922,-3.18,-1.56,72.4,0.845,
-1.11,-3.99,64.2,0.99,-2.12,-1.71,64.4,0.95,-3.22,-2.54,64.3,0.921,-3.18,-1.57,72.6,0.844,
-1.15,-4.05,64.3,0.985,-2.13,-1.71,64.4,0.949,-3.24,-2.55,64.3,0.921,-3.2,-1.56,72.4,0.844,
-1.14,-4,64.1,0.989,-2.15,-1.71,64.4,0.949,-3.25,-2.55,64.4,0.92,-3.2,-1.56,72.5,0.844,
-1.12,-4.04,64.2,0.987,-2.13,-1.71,64.4,0.948,-3.23,-2.53,64.3,0.922,-3.2,-1.56,72.5,0.843,
-1.12,-4.08,64.4,0.986,-2.14,-1.7,64.3,0.95,-3.24,-2.53,64.3,0.921,-3.2,-1.54,72.4,0.844,
-1.17,-4.05,64.3,0.985,-2.15,-1.7,64.3,0.948,-3.24,-2.51,64.3,0.922,-3.21,-1.54,72.4,0.843,
-1.13,-4.01,64.3,0.986,-2.14,-1.7,64.4,0.949,-3.22,-2.49,64.2,0.924,-3.2,-1.52,72.4,0.845,
-1.19,-3.97,64,0.984,-2.14,-1.7,64.6,0.948,-3.22,-2.49,64.3,0.923,-3.19,-1.51,72.4,0.844,
-1.16,-3.96,64.1,0.987,-2.14,-1.67,64.5,0.95,-3.22,-2.48,64.3,0.923,-3.2,-1.5,72.3,0.845,
