O2Hb_1,HHb_1,TOI_1,nTHI_1,O2Hb_2,HHb_2,TOI_2,nTHI_2,O2Hb_3,HHb_3,TOI_3,nTHI_3,O2Hb_4,HHb_4,TOI_4,nTHI_4,Comment
-11.99,-9.12,79.3,1.514,-2.55,-1.51,77.8,0.993,-4.04,-3.44,74.1,1.039,-7.05,-4.89,71.7,0.798,
-12.01,-9.13,79.3,1.514,-2.57,-1.51,77.8,0.991,-4.05,-3.44,74.1,1.039,-7.08,-4.89,71.7,0.798,
-12,-9.12,79.3,1.513,-2.57,-1.51,77.8,0.992,-4.06,-3.44,74,1.039,-7.09,-4.89,71.6,0.796,
-11.9,-9.1,79.3,1.516,-2.51,-1.5,77.8,0.993,-3.98,-3.43,74.1,1.041,-7.02,-4.88,71.7,0.797,
-11.9,-9.1,79.3,1.515,-2.52,-1.5,77.7,0.992,-3.98,-3.42,74.1,1.041,-7.04,-4.88,71.6,0.797,
-11.92,-9.09,79.3,1.517,-2.53,-1.5,77.7,0.992,-4,-3.42,74.1,1.041,-7.05,-4.89,71.7,0.796,
-11.86,-9.09,79.3,1.518,-2.49,-1.5,77.8,0.993,-3.95,-3.43,74.2,1.041,-7.01,-4.88,71.7,0.797,
-11.89,-9.1,79.3,1.519,-2.5,-1.5,77.7,0.992,-3.94,-3.43,74.1,1.042,-7.02,-4.89,71.6,0.796,
-11.94,-9.12,79.3,1.517,-2.53,-1.52,77.8,0.99,-3.97,-3.44,74.1,1.041,-7.06,-4.91,71.6,0.795,
-11.91,-9.12,79.3,1.517,-2.53,-1.52,77.7,0.99,-3.97,-3.44,74.2,1.041,-7.06,-4.9,71.5,0.795,
-11.85,-9.1,79.3,1.518,-2.49,-1.52,77.8,0.991,-3.93,-3.45,74.2,1.041,-7.03,-4.89,71.4,0.795,
-11.86,-9.1,79.3,1.518,-2.5,-1.52,77.8,0.991,-3.95,-3.45,74.1,1.041,-7.05,-4.91,71.4,0.793,
-11.84,-9.09,79.3,1.519,-2.51,-1.52,77.8,0.99,-3.95,-3.44,74.1,1.041,-7.05,-4.9,71.3,0.794,
-11.75,-9.07,79.4,1.519,-2.45,-1.51,77.8,0.992,-3.88,-3.44,74.2,1.043,-7,-4.91,71.4,0.793,
-11.77,-9.07,79.4,1.519,-2.47,-1.5,77.7,0.991,-3.91,-3.44,74.1,1.042,-7,-4.92,71.6,0.793,
-11.78,-9.07,79.4,1.52,-2.48,-1.51,77.8,0.99,-3.92,-3.44,74.1,1.042,-7.03,-4.92,71.5,0.792,
-11.74,-9.08,79.4,1.521,-2.44,-1.51,77.8,0.991,-3.85,-3.45,74.3,1.044,-6.97,-4.92,71.6,0.794,
-11.77,-9.08,79.3,1.521,-2.46,-1.51,77.8,0.99,-3.87,-3.44,74.2,1.043,-6.99,-4.94,71.5,0.792,
-11.81,-9.09,79.3,1.519,-2.49,-1.52,77.7,0.989,-3.89,-3.45,74.3,1.043,-7,-4.93,71.6,0.794,
-11.75,-9.08,79.4,1.519,-2.46,-1.52,77.8,0.99,-3.86,-3.45,74.2,1.044,-6.96,-4.93,71.6,0.796,
-11.73,-9.08,79.4,1.52,-2.45,-1.51,77.7,0.989,-3.83,-3.44,74.2,1.046,-6.92,-4.92,71.7,0.798,
-11.76,-9.07,79.4,1.521,-2.47,-1.52,77.7,0.989,-3.83,-3.45,74.3,1.046,-6.88,-4.94,72,0.801,
-11.83,-9.09,79.3,1.518,-2.51,-1.52,77.7,0.987,-3.88,-3.46,74.3,1.045,-6.9,-4.94,72.1,0.803,
-11.77,-9.08,79.4,1.519,-2.48,-1.52,77.7,0.988,-3.83,-3.46,74.4,1.046,-6.86,-4.96,72.3,0.803,
-11.79,-9.09,79.4,1.519,-2.48,-1.52,77.7,0.988,-3.82,-3.46,74.4,1.046,-6.87,-4.94,72.1,0.804,
-11.82,-9.1,79.4,1.519,-2.51,-1.53,77.7,0.987,-3.86,-3.47,74.4,1.045,-6.9,-4.95,72.1,0.803,
-11.84,-9.09,79.3,1.518,-2.53,-1.54,77.7,0.986,-3.88,-3.47,74.4,1.046,-6.92,-4.96,72.1,0.802,
-11.77,-9.08,79.4,1.519,-2.49,-1.53,77.7,0.987,-3.83,-3.46,74.4,1.047,-6.87,-4.95,72.2,0.804,
-11.81,-9.09,79.3,1.519,-2.51,-1.53,77.7,0.985,-3.85,-3.46,74.4,1.047,-6.89,-4.96,72.2,0.804,
-11.85,-9.09,79.3,1.518,-2.53,-1.54,77.7,0.986,-3.89,-3.47,74.4,1.046,-6.92,-4.97,72.2,0.802,
-11.81,-9.07,79.3,1.518,-2.52,-1.53,77.7,0.986,-3.87,-3.47,74.4,1.047,-6.9,-4.95,72.2,0.804,
-11.77,-9.07,79.3,1.52,-2.48,-1.52,77.7,0.988,-3.84,-3.46,74.4,1.048,-6.88,-4.95,72.1,0.804,
-11.8,-9.07,79.3,1.52,-2.5,-1.53,77.7,0.986,-3.86,-3.46,74.4,1.047,-6.9,-4.96,72.2,0.803,
-11.82,-9.07,79.3,1.519,-2.51,-1.53,77.7,0.985,-3.88,-3.47,74.4,1.047,-6.91,-4.95,72.1,0.804,
-11.74,-9.06,79.4,1.521,-2.47,-1.52,77.7,0.986,-3.82,-3.46,74.5,1.049,-6.86,-4.95,72.2,0.806,
-11.76,-9.07,79.4,1.522,-2.47,-1.52,77.7,0.986,-3.82,-3.46,74.5,1.049,-6.86,-4.95,72.2,0.806,
-11.81,-9.08,79.4,1.521,-2.49,-1.53,77.7,0.986,-3.85,-3.46,74.4,1.048,-6.89,-4.95,72.1,0.805,
-11.8,-9.09,79.4,1.521,-2.49,-1.53,77.7,0.985,-3.84,-3.47,74.5,1.049,-6.88,-4.96,72.2,0.806,
-11.8,-9.09,79.3,1.521,-2.47,-1.54,77.8,0.985,-3.82,-3.47,74.5,1.049,-6.87,-4.97,72.2,0.805,
-11.82,-9.1,79.4,1.521,-2.5,-1.54,77.7,0.984,-3.84,-3.47,74.5,1.049,-6.9,-4.97,72.2,0.805,
-11.81,-9.09,79.4,1.521,-2.5,-1.54,77.7,0.985,-3.85,-3.48,74.5,1.049,-6.9,-4.98,72.2,0.803,
-11.76,-9.09,79.4,1.522,-2.46,-1.53,77.7,0.985,-3.81,-3.47,74.5,1.05,-6.91,-4.96,72,0.802,
-11.79,-9.09,79.4,1.522,-2.47,-1.54,77.7,0.984,-3.83,-3.47,74.4,1.049,-6.93,-4.96,71.9,0.801,
-11.79,-9.09,79.4,1.522,-2.47,-1.54,77.7,0.985,-3.83,-3.47,74.5,1.049,-6.94,-4.97,71.9,0.801,
-11.74,-9.09,79.5,1.523,-2.44,-1.54,77.7,0.984,-3.79,-3.47,74.5,1.049,-6.89,-4.97,71.9,0.802,
-11.75,-9.09,79.4,1.523,-2.44,-1.53,77.7,0.985,-3.8,-3.47,74.5,1.05,-6.91,-4.97,72,0.801,
-11.75,-9.09,79.4,1.523,-2.44,-1.54,77.8,0.984,-3.8,-3.46,74.4,1.051,-6.92,-4.97,71.9,0.801,
-11.69,-9.09,79.5,1.526,-2.4,-1.53,77.8,0.985,-3.74,-3.46,74.4,1.052,-6.86,-4.97,72,0.803,
-11.7,-9.09,79.5,1.526,-2.41,-1.53,77.7,0.985,-3.75,-3.46,74.5,1.051,-6.88,-4.96,71.9,0.802,
-11.69,-9.09,79.5,1.526,-2.41,-1.53,77.7,0.984,-3.76,-3.46,74.4,1.051,-6.88,-4.97,72,0.802,
-11.66,-9.09,79.5,1.527,-2.36,-1.53,77.8,0.985,-3.69,-3.46,74.5,1.053,-6.82,-4.98,72.1,0.803,
-11.69,-9.1,79.5,1.527,-2.39,-1.54,77.7,0.984,-3.71,-3.47,74.5,1.052,-6.85,-4.97,71.9,0.803,
-11.73,-9.11,79.5,1.525,-2.41,-1.55,77.8,0.983,-3.73,-3.47,74.4,1.052,-6.89,-4.99,71.9,0.802,
-11.65,-9.1,79.5,1.527,-2.36,-1.54,77.7,0.984,-3.67,-3.47,74.5,1.053,-6.83,-4.98,72,0.803,
-11.64,-9.1,79.5,1.527,-2.36,-1.55,77.8,0.984,-3.68,-3.47,74.5,1.053,-6.84,-4.98,72,0.803,
-11.63,-9.09,79.5,1.527,-2.37,-1.54,77.8,0.983,-3.69,-3.46,74.5,1.054,-6.85,-4.98,72,0.802,
-11.56,-9.08,79.6,1.529,-2.32,-1.54,77.8,0.985,-3.63,-3.45,74.5,1.055,-6.78,-4.97,72.1,0.805,
-11.57,-9.08,79.5,1.528,-2.32,-1.53,77.8,0.984,-3.63,-3.45,74.5,1.055,-6.79,-4.97,72,0.805,
-11.57,-9.07,79.5,1.529,-2.33,-1.53,77.8,0.983,-3.65,-3.45,74.5,1.055,-6.82,-4.96,71.9,0.804,
-11.49,-9.06,79.5,1.531,-2.28,-1.53,77.8,0.984,-3.57,-3.44,74.5,1.057,-6.74,-4.96,72,0.806,
-11.49,-9.06,79.6,1.531,-2.28,-1.52,77.8,0.984,-3.57,-3.44,74.5,1.058,-6.75,-4.95,71.9,0.805,
-11.51,-9.06,79.6,1.531,-2.29,-1.52,77.8,0.984,-3.59,-3.43,74.5,1.058,-6.77,-4.97,72.1,0.805,
-11.44,-9.05,79.6,1.531,-2.25,-1.52,77.8,0.984,-3.54,-3.43,74.5,1.059,-6.73,-4.95,71.9,0.806,
-11.44,-9.05,79.6,1.532,-2.25,-1.51,77.8,0.984,-3.53,-3.43,74.6,1.059,-6.71,-4.95,72,0.807,
-11.45,-9.05,79.6,1.532,-2.27,-1.51,77.8,0.984,-3.55,-3.43,74.6,1.059,-6.74,-4.95,71.9,0.806,
-11.45,-9.05,79.6,1.533,-2.26,-1.52,77.8,0.984,-3.55,-3.42,74.5,1.061,-6.73,-4.95,72,0.807,
-11.46,-9.07,79.6,1.532,-2.26,-1.52,77.8,0.984,-3.51,-3.42,74.6,1.061,-6.71,-4.95,72,0.807,
-11.49,-9.07,79.6,1.531,-2.29,-1.53,77.8,0.983,-3.54,-3.42,74.6,1.061,-6.74,-4.97,72,0.805,
-11.51,-9.08,79.6,1.533,-2.3,-1.53,77.7,0.982,-3.56,-3.41,74.5,1.06,-6.75,-4.96,72,0.806,
-11.48,-9.07,79.6,1.534,-2.27,-1.53,77.8,0.983,-3.51,-3.41,74.5,1.062,-6.71,-4.97,72.1,0.806,
-11.49,-9.07,79.6,1.536,-2.29,-1.52,77.8,0.982,-3.53,-3.42,74.5,1.062,-6.73,-4.97,72.1,0.806,
-11.53,-9.08,79.6,1.536,-2.32,-1.52,77.7,0.981,-3.56,-3.42,74.5,1.062,-6.74,-4.97,72.1,0.806,
-11.49,-9.08,79.6,1.537,-2.29,-1.53,77.8,0.982,-3.54,-3.43,74.5,1.062,-6.72,-4.98,72.1,0.806,
-11.56,-9.11,79.6,1.537,-2.33,-1.54,77.7,0.98,-3.55,-3.43,74.5,1.062,-6.74,-4.98,72.1,0.805,
-11.63,-9.14,79.6,1.536,-2.37,-1.56,77.7,0.979,-3.6,-3.44,74.5,1.061,-6.79,-5.01,72.1,0.804,
-11.59,-9.11,79.6,1.539,-2.39,-1.57,77.7,0.978,-3.55,-3.44,74.6,1.062,-6.86,-5.08,72.1,0.799,
-11.27,-8.9,79.6,1.517,-2.39,-1.59,77.8,0.976,-3.59,-3.45,74.5,1.069,-7.13,-5.24,72,0.785,
-11.22,-8.88,79.6,1.506,-2.37,-1.58,77.7,0.985,-3.62,-3.47,74.5,1.077,-7.34,-5.39,72.1,0.776,
-11.2,-8.89,79.6,1.512,-2.35,-1.58,77.8,0.984,-3.52,-3.43,74.5,1.077,-7.22,-5.33,72.1,0.784,
-11.2,-8.87,79.6,1.527,-2.37,-1.59,77.8,0.978,-3.57,-3.43,74.4,1.072,-7.05,-5.19,72,0.796,
-11.18,-8.88,79.6,1.538,-2.3,-1.55,77.8,0.981,-3.53,-3.44,74.5,1.069,-6.94,-5.14,72.1,0.799,
-11.22,-8.93,79.6,1.541,-2.27,-1.54,77.8,0.982,-3.51,-3.44,74.5,1.069,-6.84,-5.11,72.2,0.8,
-11.27,-8.97,79.7,1.54,-2.27,-1.53,77.8,0.982,-3.54,-3.45,74.5,1.069,-6.83,-5.08,72,0.801,
-11.22,-8.96,79.7,1.539,-2.21,-1.52,77.8,0.985,-3.5,-3.45,74.5,1.07,-6.76,-5.07,72.1,0.802,
-11.23,-8.97,79.6,1.54,-2.22,-1.52,77.8,0.985,-3.5,-3.46,74.6,1.071,-6.78,-5.06,71.9,0.8,
-11.23,-8.96,79.6,1.543,-2.24,-1.52,77.7,0.983,-3.51,-3.44,74.5,1.073,-6.78,-5.07,72,0.798,
-11.18,-8.96,79.7,1.545,-2.2,-1.52,77.8,0.985,-3.46,-3.44,74.6,1.073,-6.73,-5.05,71.9,0.798,
-11.23,-8.98,79.6,1.546,-2.23,-1.52,77.7,0.983,-3.49,-3.44,74.5,1.072,-6.76,-5.05,71.8,0.796,
-11.28,-8.99,79.6,1.546,-2.25,-1.53,77.8,0.983,-3.55,-3.47,74.5,1.07,-6.79,-5.07,71.9,0.795,
-11.29,-9,79.6,1.546,-2.27,-1.54,77.7,0.982,-3.57,-3.49,74.5,1.069,-6.8,-5.05,71.8,0.796,
-11.27,-9,79.6,1.546,-2.24,-1.53,77.7,0.984,-3.53,-3.52,74.7,1.069,-6.75,-5.06,71.9,0.796,
-11.33,-9.02,79.6,1.546,-2.28,-1.55,77.7,0.982,-3.58,-3.53,74.6,1.066,-6.8,-5.05,71.7,0.795,
-11.36,-9.02,79.6,1.546,-2.31,-1.55,77.8,0.982,-3.63,-3.57,74.7,1.064,-6.8,-5.06,71.8,0.796,
-11.36,-9.02,79.6,1.546,-2.33,-1.55,77.7,0.98,-3.65,-3.58,74.7,1.062,-6.82,-5.06,71.7,0.795,
-11.33,-9.01,79.6,1.547,-2.31,-1.55,77.7,0.981,-3.64,-3.6,74.7,1.063,-6.79,-5.05,71.7,0.796,
-11.36,-9.01,79.6,1.546,-2.34,-1.56,77.7,0.98,-3.68,-3.62,74.8,1.06,-6.82,-5.05,71.7,0.794,
-11.41,-9.03,79.6,1.546,-2.38,-1.57,77.7,0.978,-3.72,-3.65,74.8,1.058,-6.84,-5.05,71.7,0.794,
-11.35,-9.01,79.6,1.547,-2.36,-1.57,77.7,0.978,-3.69,-3.66,74.9,1.057,-6.8,-5.04,71.7,0.795,
-11.37,-9.01,79.6,1.547,-2.38,-1.57,77.7,0.977,-3.72,-3.69,74.9,1.055,-6.81,-5.05,71.7,0.794,
-11.41,-9.01,79.6,1.547,-2.41,-1.58,77.6,0.974,-3.76,-3.71,75,1.052,-6.84,-5.04,71.6,0.794,
-11.36,-9.01,79.6,1.546,-2.41,-1.59,77.7,0.975,-3.75,-3.74,75,1.051,-6.81,-5.05,71.7,0.795,
-11.38,-9.02,79.6,1.548,-2.41,-1.59,77.7,0.975,-3.75,-3.76,75.1,1.05,-6.8,-5.04,71.7,0.795,
-11.45,-9.03,79.6,1.547,-2.45,-1.61,77.6,0.973,-3.81,-3.8,75.1,1.046,-6.83,-5.07,71.8,0.794,
-11.46,-9.04,79.6,1.547,-2.46,-1.62,77.7,0.973,-3.81,-3.83,75.2,1.044,-6.82,-5.06,71.8,0.796,
-11.48,-9.05,79.6,1.547,-2.47,-1.63,77.7,0.972,-3.81,-3.87,75.3,1.042,-6.79,-5.07,71.9,0.798,
-11.51,-9.06,79.6,1.546,-2.5,-1.64,77.6,0.971,-3.85,-3.89,75.3,1.039,-6.79,-5.08,72,0.798,
-11.49,-9.06,79.6,1.546,-2.5,-1.64,77.6,0.97,-3.84,-3.91,75.3,1.039,-6.76,-5.06,72,0.802,
-11.51,-9.07,79.7,1.547,-2.5,-1.65,77.7,0.97,-3.84,-3.92,75.4,1.038,-6.7,-5.09,72.4,0.804,
-11.55,-9.08,79.6,1.547,-2.54,-1.66,77.6,0.967,-3.86,-3.93,75.4,1.038,-6.73,-5.09,72.3,0.804,
-11.56,-9.08,79.6,1.546,-2.54,-1.67,77.7,0.968,-3.87,-3.93,75.3,1.038,-6.73,-5.09,72.3,0.805,
-11.58,-9.1,79.6,1.546,-2.55,-1.68,77.6,0.967,-3.85,-3.92,75.3,1.039,-6.72,-5.1,72.4,0.805,
-11.64,-9.11,79.6,1.545,-2.58,-1.69,77.6,0.966,-3.88,-3.93,75.4,1.039,-6.75,-5.12,72.4,0.803,
-11.7,-9.13,79.6,1.543,-2.61,-1.7,77.6,0.966,-3.9,-3.93,75.3,1.039,-6.77,-5.13,72.5,0.804,
-11.69,-9.15,79.7,1.543,-2.58,-1.7,77.7,0.968,-3.88,-3.93,75.3,1.039,-6.76,-5.12,72.4,0.805,
-11.73,-9.16,79.6,1.542,-2.6,-1.69,77.6,0.968,-3.92,-3.92,75.3,1.039,-6.79,-5.14,72.4,0.803,
-11.76,-9.16,79.6,1.541,-2.62,-1.69,77.5,0.968,-3.94,-3.92,75.2,1.039,-6.82,-5.14,72.3,0.803,
-11.73,-9.16,79.6,1.541,-2.58,-1.69,77.6,0.97,-3.9,-3.92,75.3,1.042,-6.79,-5.14,72.4,0.804,
-11.78,-9.17,79.6,1.54,-2.6,-1.68,77.6,0.97,-3.93,-3.9,75.2,1.042,-6.82,-5.15,72.4,0.803,
-11.79,-9.18,79.6,1.541,-2.6,-1.68,77.6,0.971,-3.95,-3.91,75.2,1.042,-6.83,-5.15,72.4,0.803,
-11.76,-9.18,79.6,1.541,-2.56,-1.67,77.6,0.973,-3.9,-3.89,75.2,1.044,-6.79,-5.16,72.5,0.804,
-11.79,-9.18,79.6,1.541,-2.56,-1.66,77.6,0.974,-3.91,-3.89,75.2,1.045,-6.82,-5.16,72.4,0.802,
-11.8,-9.18,79.6,1.54,-2.56,-1.66,77.6,0.974,-3.94,-3.87,75,1.045,-6.82,-5.17,72.5,0.803,
-11.75,-9.19,79.6,1.541,-2.51,-1.64,77.6,0.978,-3.88,-3.85,75.1,1.047,-6.78,-5.16,72.5,0.803,
-11.79,-9.2,79.6,1.54,-2.51,-1.65,77.6,0.978,-3.89,-3.84,75,1.049,-6.81,-5.17,72.5,0.803,
-11.83,-9.21,79.6,1.54,-2.54,-1.65,77.6,0.978,-3.91,-3.83,75,1.049,-6.83,-5.17,72.5,0.803,
-11.78,-9.21,79.6,1.541,-2.49,-1.64,77.6,0.98,-3.86,-3.82,75.1,1.051,-6.8,-5.17,72.5,0.803,
-11.81,-9.22,79.7,1.54,-2.49,-1.64,77.6,0.981,-3.87,-3.82,75.1,1.051,-6.82,-5.19,72.5,0.801,
-11.84,-9.23,79.6,1.54,-2.51,-1.63,77.5,0.981,-3.9,-3.81,75,1.051,-6.9,-5.18,72.2,0.798,
-11.83,-9.22,79.7,1.538,-2.5,-1.63,77.6,0.981,-3.9,-3.82,75,1.051,-6.9,-5.18,72.2,0.798,
-11.77,-9.22,79.6,1.54,-2.45,-1.62,77.6,0.983,-3.85,-3.82,75.1,1.053,-6.86,-5.17,72.2,0.799,
-11.77,-9.21,79.7,1.539,-2.45,-1.61,77.6,0.983,-3.87,-3.81,75,1.052,-6.87,-5.17,72.2,0.799,
-11.77,-9.2,79.7,1.54,-2.45,-1.61,77.6,0.984,-3.89,-3.81,75,1.052,-6.89,-5.17,72.2,0.798,
-11.71,-9.19,79.6,1.541,-2.42,-1.6,77.7,0.985,-3.84,-3.8,75,1.053,-6.85,-5.16,72.2,0.799,
-11.71,-9.19,79.7,1.543,-2.41,-1.6,77.7,0.985,-3.83,-3.8,75.1,1.054,-6.82,-5.15,72.2,0.801,
-11.7,-9.18,79.7,1.543,-2.42,-1.6,77.6,0.984,-3.85,-3.81,75.1,1.053,-6.86,-5.16,72.2,0.799,
-11.66,-9.16,79.7,1.542,-2.41,-1.59,77.6,0.984,-3.84,-3.8,75,1.053,-6.85,-5.15,72.1,0.799,
-11.61,-9.17,79.7,1.544,-2.37,-1.59,77.6,0.984,-3.78,-3.79,75.1,1.056,-6.79,-5.14,72.2,0.801,
-11.65,-9.18,79.7,1.545,-2.39,-1.59,77.6,0.983,-3.8,-3.79,75.1,1.055,-6.81,-5.16,72.2,0.8,
-11.67,-9.19,79.8,1.544,-2.41,-1.6,77.6,0.982,-3.83,-3.79,74.9,1.055,-6.83,-5.16,72.3,0.8,
-11.63,-9.18,79.8,1.544,-2.39,-1.6,77.6,0.982,-3.8,-3.8,75.1,1.055,-6.81,-5.15,72.1,0.801,
-11.63,-9.19,79.7,1.545,-2.38,-1.61,77.7,0.982,-3.78,-3.8,75,1.055,-6.79,-5.16,72.2,0.802,
-11.67,-9.2,79.8,1.545,-2.4,-1.61,77.7,0.981,-3.8,-3.81,75.1,1.055,-6.81,-5.17,72.2,0.8,
-11.69,-9.2,79.7,1.544,-2.42,-1.62,77.6,0.98,-3.82,-3.82,75.1,1.054,-6.83,-5.16,72.1,0.801,
-11.67,-9.21,79.8,1.545,-2.4,-1.62,77.7,0.981,-3.79,-3.82,75.1,1.055,-6.8,-5.18,72.3,0.8,
-11.7,-9.22,79.8,1.544,-2.43,-1.64,77.6,0.98,-3.81,-3.83,75.1,1.054,-6.83,-5.18,72.2,0.8,
-11.73,-9.23,79.7,1.543,-2.46,-1.64,77.6,0.978,-3.84,-3.83,75.1,1.054,-6.85,-5.19,72.2,0.8,
-11.7,-9.23,79.8,1.543,-2.44,-1.65,77.6,0.979,-3.82,-3.84,75.1,1.054,-6.84,-5.2,72.2,0.799,
-11.72,-9.24,79.8,1.543,-2.44,-1.65,77.6,0.979,-3.81,-3.84,75,1.054,-6.82,-5.2,72.3,0.8,
-11.76,-9.25,79.8,1.543,-2.47,-1.66,77.6,0.978,-3.84,-3.85,75.1,1.052,-6.85,-5.21,72.2,0.8,
-11.78,-9.26,79.8,1.541,-2.49,-1.67,77.6,0.978,-3.86,-3.86,75.1,1.053,-6.89,-5.22,72.2,0.798,
-11.74,-9.26,79.8,1.542,-2.47,-1.67,77.6,0.978,-3.83,-3.86,75.1,1.053,-6.84,-5.22,72.2,0.8,
-11.79,-9.28,79.7,1.541,-2.49,-1.68,77.7,0.977,-3.84,-3.87,75.2,1.053,-6.87,-5.21,72.2,0.799,
-11.84,-9.3,79.7,1.541,-2.52,-1.69,77.6,0.975,-3.85,-3.86,75.1,1.052,-6.89,-5.23,72.2,0.798,
-11.77,-9.28,79.7,1.54,-2.49,-1.69,77.6,0.976,-3.82,-3.85,75,1.052,-6.86,-5.23,72.3,0.799,
-11.77,-9.28,79.8,1.54,-2.48,-1.69,77.6,0.976,-3.82,-3.87,75.1,1.053,-6.85,-5.23,72.2,0.8,
-11.76,-9.27,79.8,1.542,-2.47,-1.68,77.6,0.975,-3.85,-3.88,75.1,1.052,-6.86,-5.24,72.3,0.798,
-11.71,-9.26,79.8,1.544,-2.44,-1.67,77.7,0.976,-3.81,-3.88,75.2,1.054,-6.83,-5.23,72.3,0.799,
-11.67,-9.25,79.8,1.545,-2.42,-1.67,77.7,0.976,-3.79,-3.88,75.2,1.054,-6.8,-5.23,72.3,0.8,
-11.67,-9.24,79.8,1.545,-2.43,-1.66,77.5,0.976,-3.81,-3.89,75.1,1.054,-6.82,-5.24,72.3,0.799,
-11.64,-9.24,79.8,1.547,-2.4,-1.66,77.7,0.978,-3.77,-3.88,75.2,1.055,-6.78,-5.22,72.3,0.801,
-11.66,-9.25,79.8,1.547,-2.4,-1.67,77.6,0.976,-3.77,-3.89,75.1,1.054,-6.77,-5.24,72.4,0.8,
-11.71,-9.27,79.8,1.546,-2.43,-1.68,77.6,0.975,-3.79,-3.9,75.1,1.053,-6.8,-5.26,72.3,0.799,
-11.68,-9.27,79.8,1.547,-2.42,-1.69,77.7,0.976,-3.77,-3.91,75.2,1.054,-6.79,-5.26,72.3,0.799,
-11.66,-9.27,79.8,1.546,-2.4,-1.69,77.6,0.976,-3.76,-3.91,75.2,1.055,-6.76,-5.27,72.5,0.8,
-11.73,-9.3,79.8,1.546,-2.44,-1.7,77.7,0.975,-3.78,-3.92,75.2,1.053,-6.79,-5.28,72.4,0.799,
-11.69,-9.3,79.8,1.546,-2.42,-1.71,77.7,0.974,-3.73,-3.91,75.3,1.052,-6.76,-5.27,72.3,0.799,
-11.65,-9.28,79.8,1.549,-2.42,-1.72,77.7,0.973,-3.67,-3.89,75.2,1.053,-6.73,-5.27,72.4,0.801,
-11.63,-9.27,79.8,1.549,-2.42,-1.72,77.7,0.973,-3.69,-3.9,75.3,1.053,-6.76,-5.27,72.3,0.799,
-11.51,-9.24,79.8,1.549,-2.37,-1.7,77.7,0.975,-3.63,-3.89,75.3,1.055,-6.68,-5.25,72.4,0.803,
-11.36,-9.15,79.8,1.554,-2.37,-1.73,77.7,0.976,-3.61,-3.89,75.2,1.055,-6.64,-5.25,72.5,0.804,
-11.42,-9.17,79.8,1.558,-2.42,-1.75,77.8,0.975,-3.65,-3.9,75.2,1.053,-6.66,-5.25,72.5,0.804,
-11.41,-9.17,79.9,1.559,-2.44,-1.77,77.7,0.974,-3.66,-3.92,75.3,1.053,-6.67,-5.25,72.3,0.804,
-11.37,-9.16,79.9,1.561,-2.41,-1.78,77.8,0.976,-3.63,-3.93,75.3,1.053,-6.62,-5.23,72.3,0.807,
-11.41,-9.18,79.9,1.561,-2.45,-1.79,77.8,0.975,-3.66,-3.94,75.3,1.052,-6.64,-5.22,72.2,0.806,
-11.48,-9.19,79.8,1.56,-2.49,-1.81,77.8,0.973,-3.72,-3.96,75.2,1.051,-6.68,-5.24,72.2,0.806,
-11.42,-9.19,79.8,1.559,-2.46,-1.81,77.8,0.974,-3.69,-3.97,75.3,1.051,-6.65,-5.23,72.2,0.807,
-11.43,-9.2,79.9,1.561,-2.47,-1.81,77.8,0.973,-3.69,-3.98,75.3,1.05,-6.64,-5.24,72.3,0.806,
-11.49,-9.21,79.8,1.559,-2.5,-1.83,77.8,0.973,-3.73,-3.98,75.2,1.051,-6.67,-5.24,72.2,0.807,
-11.54,-9.23,79.9,1.559,-2.54,-1.85,77.8,0.972,-3.77,-4,75.3,1.049,-6.71,-5.25,72.2,0.806,
-11.47,-9.22,79.9,1.56,-2.52,-1.85,77.8,0.972,-3.73,-4,75.3,1.051,-6.67,-5.25,72.1,0.806,
-11.5,-9.23,79.9,1.56,-2.53,-1.85,77.8,0.972,-3.74,-4.01,75.3,1.049,-6.68,-5.24,72.1,0.807,
-11.56,-9.25,79.9,1.559,-2.56,-1.86,77.8,0.971,-3.78,-4.02,75.3,1.049,-6.7,-5.26,72.2,0.807,
-11.57,-9.25,79.9,1.559,-2.59,-1.87,77.7,0.971,-3.8,-4.03,75.3,1.047,-6.73,-5.26,72,0.805,
-11.55,-9.26,79.9,1.56,-2.56,-1.88,77.8,0.971,-3.77,-4.03,75.3,1.048,-6.69,-5.26,72.1,0.807,
-11.6,-9.27,79.8,1.56,-2.58,-1.89,77.8,0.971,-3.81,-4.05,75.3,1.046,-6.72,-5.27,72.2,0.806,
-11.64,-9.28,79.8,1.559,-2.62,-1.89,77.7,0.969,-3.84,-4.06,75.4,1.046,-6.76,-5.27,72,0.805,
-11.58,-9.27,79.8,1.559,-2.58,-1.89,77.8,0.971,-3.8,-4.06,75.4,1.047,-6.71,-5.27,72.1,0.807,
-11.6,-9.28,79.8,1.561,-2.59,-1.9,77.7,0.97,-3.8,-4.07,75.4,1.047,-6.71,-5.27,72.1,0.807,
-11.64,-9.29,79.8,1.56,-2.62,-1.91,77.7,0.969,-3.83,-4.08,75.4,1.046,-6.75,-5.28,72,0.805,
-11.64,-9.29,79.8,1.56,-2.62,-1.91,77.8,0.97,-3.83,-4.08,75.4,1.045,-6.76,-5.29,72,0.804,
-11.6,-9.29,79.8,1.561,-2.59,-1.91,77.8,0.97,-3.8,-4.09,75.5,1.046,-6.71,-5.31,72.3,0.804,
-11.63,-9.29,79.8,1.561,-2.6,-1.91,77.8,0.97,-3.82,-4.1,75.5,1.045,-6.71,-5.35,72.5,0.803,
-11.67,-9.3,79.8,1.56,-2.63,-1.92,77.7,0.97,-3.85,-4.13,75.5,1.043,-6.76,-5.39,72.5,0.798,
-11.63,-9.29,79.8,1.558,-2.6,-1.92,77.8,0.97,-3.83,-4.13,75.6,1.043,-6.74,-5.41,72.7,0.797,
-11.61,-9.28,79.8,1.559,-2.59,-1.91,77.8,0.971,-3.82,-4.13,75.5,1.044,-6.74,-5.41,72.6,0.795,
-11.62,-9.28,79.8,1.559,-2.6,-1.91,77.8,0.97,-3.83,-4.13,75.6,1.044,-6.75,-5.42,72.7,0.796,
-11.61,-9.27,79.8,1.558,-2.6,-1.92,77.7,0.97,-3.84,-4.14,75.5,1.043,-6.75,-5.41,72.7,0.796,
-11.57,-9.27,79.8,1.561,-2.56,-1.92,77.8,0.972,-3.8,-4.14,75.7,1.043,-6.71,-5.42,72.7,0.796,
-11.6,-9.27,79.8,1.562,-2.58,-1.92,77.8,0.97,-3.81,-4.15,75.6,1.044,-6.73,-5.43,72.7,0.796,
-11.63,-9.28,79.8,1.561,-2.6,-1.93,77.8,0.97,-3.84,-4.16,75.5,1.042,-6.75,-5.43,72.8,0.795,
-11.56,-9.27,79.8,1.562,-2.56,-1.92,77.8,0.971,-3.79,-4.16,75.7,1.044,-6.7,-5.44,72.9,0.795,
-11.58,-9.27,79.8,1.563,-2.54,-1.93,77.8,0.972,-3.78,-4.16,75.7,1.044,-6.7,-5.44,72.8,0.796,
-11.61,-9.28,79.8,1.563,-2.56,-1.93,77.9,0.971,-3.8,-4.16,75.6,1.044,-6.72,-5.44,72.8,0.795,
-11.59,-9.28,79.8,1.562,-2.55,-1.94,77.8,0.971,-3.78,-4.17,75.7,1.044,-6.7,-5.45,72.8,0.796,
-11.55,-9.28,79.8,1.562,-2.51,-1.93,77.8,0.971,-3.74,-4.17,75.7,1.045,-6.66,-5.45,72.9,0.797,
-11.54,-9.27,79.8,1.564,-2.52,-1.93,77.9,0.972,-3.75,-4.17,75.7,1.045,-6.66,-5.45,72.9,0.797,
-11.53,-9.27,79.8,1.564,-2.52,-1.93,77.9,0.972,-3.75,-4.17,75.7,1.045,-6.68,-5.46,72.9,0.795,
-11.48,-9.26,79.8,1.565,-2.47,-1.93,78,0.973,-3.69,-4.16,75.8,1.046,-6.61,-5.46,73,0.797,
-11.5,-9.27,79.9,1.566,-2.48,-1.93,77.8,0.973,-3.71,-4.17,75.7,1.045,-6.63,-5.47,73,0.796,
-11.55,-9.28,79.8,1.565,-2.52,-1.94,77.9,0.971,-3.73,-4.18,75.7,1.044,-6.67,-5.48,73,0.795,
-11.51,-9.28,79.9,1.566,-2.49,-1.94,77.9,0.971,-3.7,-4.18,75.8,1.045,-6.66,-5.47,72.9,0.795,
-11.49,-9.27,79.9,1.568,-2.48,-1.95,77.9,0.971,-3.71,-4.19,75.7,1.044,-6.66,-5.47,72.8,0.795,
-11.52,-9.28,79.9,1.571,-2.51,-1.96,77.9,0.969,-3.73,-4.19,75.7,1.045,-6.67,-5.47,72.8,0.796,
-11.54,-9.28,79.9,1.57,-2.52,-1.96,77.9,0.97,-3.73,-4.2,75.7,1.044,-6.66,-5.45,72.8,0.799,
-11.5,-9.29,79.9,1.571,-2.48,-1.96,77.9,0.971,-3.69,-4.21,75.8,1.046,-6.62,-5.44,72.7,0.8,
-11.5,-9.29,79.9,1.57,-2.49,-1.96,77.9,0.97,-3.71,-4.21,75.7,1.045,-6.64,-5.46,72.8,0.799,
-11.51,-9.28,79.9,1.569,-2.49,-1.96,77.9,0.97,-3.72,-4.22,75.8,1.044,-6.64,-5.45,72.8,0.8,
-11.43,-9.27,79.9,1.57,-2.43,-1.95,77.9,0.971,-3.66,-4.21,75.8,1.046,-6.56,-5.44,72.9,0.803,
-11.44,-9.27,80,1.571,-2.44,-1.95,77.9,0.972,-3.67,-4.21,75.8,1.046,-6.58,-5.45,72.9,0.801,
-11.48,-9.28,79.9,1.571,-2.46,-1.96,77.8,0.97,-3.69,-4.21,75.8,1.046,-6.61,-5.45,72.8,0.8,
-11.43,-9.28,80,1.572,-2.44,-1.96,77.9,0.97,-3.66,-4.22,75.8,1.046,-6.57,-5.45,72.9,0.801,
-11.41,-9.28,80,1.572,-2.41,-1.95,77.9,0.971,-3.63,-4.22,75.8,1.046,-6.55,-5.45,72.9,0.802,
-11.45,-9.28,80,1.572,-2.43,-1.96,77.9,0.97,-3.65,-4.22,75.8,1.046,-6.57,-5.45,72.8,0.8,
-11.46,-9.29,80,1.571,-2.44,-1.96,77.9,0.97,-3.66,-4.23,75.8,1.046,-6.58,-5.46,72.9,0.801,
-11.39,-9.28,80,1.571,-2.39,-1.96,78,0.971,-3.61,-4.22,75.8,1.047,-6.54,-5.46,72.8,0.8,
-11.4,-9.27,80,1.573,-2.4,-1.95,77.9,0.971,-3.61,-4.23,75.9,1.046,-6.54,-5.47,72.9,0.801,
-11.42,-9.28,80,1.572,-2.43,-1.96,77.8,0.969,-3.64,-4.24,75.9,1.046,-6.56,-5.47,73,0.8,
-11.37,-9.27,80,1.572,-2.4,-1.96,77.9,0.971,-3.6,-4.24,75.9,1.046,-6.54,-5.47,73,0.801,
-11.37,-9.27,80,1.574,-2.38,-1.96,78,0.97,-3.58,-4.24,75.9,1.047,-6.53,-5.46,72.9,0.802,
-11.4,-9.28,80,1.573,-2.41,-1.96,77.9,0.97,-3.61,-4.24,75.9,1.046,-6.55,-5.47,72.9,0.801,
-11.4,-9.28,80,1.573,-2.42,-1.96,77.8,0.969,-3.62,-4.25,75.9,1.046,-6.57,-5.48,72.8,0.8,
-11.35,-9.27,80,1.575,-2.37,-1.96,77.9,0.97,-3.56,-4.25,76,1.047,-6.51,-5.47,72.9,0.801,
-11.38,-9.28,80.1,1.575,-2.39,-1.97,78,0.969,-3.58,-4.26,76,1.046,-6.52,-5.48,73,0.801,
-11.43,-9.29,80,1.574,-2.43,-1.98,77.9,0.968,-3.6,-4.27,76,1.046,-6.56,-5.49,72.9,0.8,
-11.38,-9.29,80.1,1.574,-2.4,-1.97,77.9,0.97,-3.57,-4.28,76,1.045,-6.54,-5.48,72.8,0.8,
-11.37,-9.28,80.1,1.576,-2.38,-1.98,77.9,0.969,-3.56,-4.27,76,1.046,-6.51,-5.49,73,0.801,
-11.4,-9.29,80.1,1.574,-2.41,-1.98,77.9,0.968,-3.58,-4.28,76,1.046,-6.54,-5.5,73,0.8,
-11.43,-9.3,80.1,1.574,-2.43,-1.98,77.8,0.967,-3.59,-4.29,76.1,1.045,-6.56,-5.5,72.9,0.8,
-11.38,-9.29,80,1.575,-2.39,-1.98,77.9,0.968,-3.55,-4.3,76.1,1.046,-6.51,-5.5,73,0.801,
-11.4,-9.3,80.1,1.575,-2.4,-1.99,77.9,0.968,-3.56,-4.29,76,1.046,-6.53,-5.51,73,0.801,
-11.43,-9.3,80.1,1.574,-2.43,-1.99,77.8,0.967,-3.58,-4.31,76.1,1.045,-6.55,-5.51,73,0.8,
-11.4,-9.29,80.1,1.574,-2.42,-1.99,77.8,0.967,-3.56,-4.32,76.2,1.045,-6.54,-5.51,73,0.801,
-11.37,-9.29,80.1,1.575,-2.39,-1.99,77.9,0.968,-3.53,-4.31,76.1,1.046,-6.52,-5.51,73,0.8,
-11.4,-9.29,80,1.576,-2.41,-1.99,77.9,0.968,-3.54,-4.32,76.1,1.046,-6.54,-5.51,72.9,0.8,
-11.43,-9.29,80,1.575,-2.44,-2,77.8,0.966,-3.56,-4.33,76.2,1.045,-6.56,-5.52,73,0.8,
-11.35,-9.28,80.1,1.575,-2.38,-1.99,77.8,0.969,-3.5,-4.34,76.3,1.046,-6.49,-5.52,73,0.8,
-11.38,-9.3,80.1,1.573,-2.39,-1.98,77.8,0.968,-3.49,-4.33,76.3,1.046,-6.51,-5.51,73,0.801,
-11.43,-9.31,80,1.575,-2.42,-2,77.9,0.966,-3.52,-4.34,76.2,1.046,-6.53,-5.53,73,0.801,
-11.44,-9.33,80,1.573,-2.43,-2.01,77.9,0.966,-3.48,-4.34,76.3,1.046,-6.53,-5.53,73.1,0.801,
-11.44,-9.33,80,1.573,-2.41,-2.01,77.9,0.967,-3.46,-4.36,76.4,1.046,-6.52,-5.54,73,0.801,
-11.48,-9.34,80,1.572,-2.44,-2.02,77.9,0.965,-3.49,-4.37,76.4,1.045,-6.55,-5.55,73,0.8,
-11.5,-9.35,80,1.572,-2.46,-2.02,77.8,0.965,-3.52,-4.39,76.4,1.045,-6.57,-5.57,73.1,0.8,
-11.45,-9.34,80,1.573,-2.43,-2.03,77.8,0.966,-3.47,-4.4,76.5,1.045,-6.53,-5.57,73.1,0.801,
-11.47,-9.34,80,1.574,-2.44,-2.03,77.9,0.965,-3.47,-4.42,76.5,1.045,-6.56,-5.56,73,0.799,
-11.51,-9.35,80,1.574,-2.47,-2.04,77.8,0.965,-3.49,-4.44,76.6,1.044,-6.56,-5.58,73.1,0.801,
-11.48,-9.34,80,1.573,-2.46,-2.04,77.8,0.965,-3.47,-4.44,76.6,1.045,-6.56,-5.56,73,0.802,
-11.45,-9.34,80,1.573,-2.42,-2.03,77.9,0.966,-3.42,-4.45,76.7,1.045,-6.51,-5.55,73.1,0.804,
-11.47,-9.34,80,1.572,-2.44,-2.04,77.9,0.965,-3.44,-4.45,76.7,1.046,-6.54,-5.52,72.8,0.805,
-11.5,-9.35,80,1.57,-2.46,-2.04,77.8,0.964,-3.47,-4.45,76.7,1.044,-6.55,-5.53,72.9,0.805,
-11.43,-9.34,80,1.571,-2.42,-2.03,77.8,0.966,-3.45,-4.43,76.6,1.046,-6.5,-5.52,72.9,0.806,
-11.43,-9.33,80,1.572,-2.41,-2.03,77.8,0.966,-3.46,-4.41,76.5,1.046,-6.5,-5.52,72.9,0.806,
-11.45,-9.34,80,1.572,-2.43,-2.03,77.8,0.965,-3.49,-4.39,76.4,1.045,-6.51,-5.51,72.8,0.807,
-11.47,-9.34,80,1.571,-2.45,-2.04,77.8,0.964,-3.54,-4.38,76.3,1.045,-6.55,-5.51,72.7,0.806,
-11.41,-9.33,80,1.572,-2.41,-2.03,77.8,0.965,-3.52,-4.35,76.2,1.045,-6.49,-5.51,72.9,0.808,
-11.43,-9.34,80,1.572,-2.41,-2.04,77.9,0.966,-3.55,-4.33,76.1,1.045,-6.51,-5.51,72.7,0.807,
-11.47,-9.35,80,1.57,-2.42,-2.05,77.9,0.965,-3.6,-4.32,76,1.044,-6.54,-5.52,72.8,0.806,
-11.45,-9.33,80,1.57,-2.41,-2.06,78,0.966,-3.63,-4.29,75.8,1.043,-6.54,-5.52,72.8,0.806,
-11.42,-9.33,80,1.571,-2.37,-2.06,78.1,0.967,-3.62,-4.27,75.7,1.043,-6.51,-5.51,72.7,0.807,
-11.45,-9.34,80,1.572,-2.37,-2.06,78.1,0.968,-3.67,-4.24,75.6,1.044,-6.54,-5.5,72.6,0.807,
-11.48,-9.34,80,1.57,-2.38,-2.07,78.2,0.967,-3.73,-4.22,75.5,1.042,-6.57,-5.51,72.6,0.806,
-11.41,-9.33,80,1.571,-2.33,-2.08,78.3,0.968,-3.72,-4.19,75.3,1.043,-6.51,-5.5,72.7,0.809,
-11.43,-9.33,80,1.572,-2.33,-2.08,78.3,0.968,-3.76,-4.16,75.1,1.043,-6.53,-5.51,72.7,0.806,
-11.48,-9.34,80,1.572,-2.34,-2.09,78.3,0.968,-3.82,-4.13,75,1.042,-6.56,-5.52,72.7,0.806,
-11.49,-9.34,80,1.57,-2.34,-2.11,78.4,0.968,-3.86,-4.11,74.8,1.042,-6.57,-5.53,72.7,0.806,
-11.46,-9.35,80,1.572,-2.3,-2.11,78.4,0.969,-3.87,-4.07,74.6,1.042,-6.54,-5.53,72.7,0.805,
-11.49,-9.35,80,1.573,-2.31,-2.12,78.5,0.969,-3.92,-4.04,74.5,1.041,-6.55,-5.54,72.8,0.805,
-11.54,-9.37,80,1.571,-2.33,-2.13,78.5,0.969,-3.98,-4.02,74.3,1.04,-6.59,-5.56,72.8,0.803,
-11.51,-9.36,80,1.572,-2.31,-2.14,78.6,0.969,-3.98,-4.01,74.3,1.04,-6.57,-5.58,73,0.802,
-11.51,-9.36,80,1.572,-2.29,-2.15,78.6,0.97,-3.98,-4,74.2,1.04,-6.57,-5.62,73.1,0.798,
-11.54,-9.37,80,1.571,-2.3,-2.15,78.6,0.97,-3.99,-4.01,74.3,1.04,-6.61,-5.63,73,0.795,
-11.57,-9.37,80,1.57,-2.32,-2.16,78.6,0.969,-4.01,-4.03,74.3,1.039,-6.62,-5.65,73.2,0.796,
-11.51,-9.36,80,1.572,-2.27,-2.16,78.7,0.971,-3.95,-4.03,74.4,1.041,-6.59,-5.64,73.1,0.796,
-11.54,-9.36,80,1.572,-2.28,-2.16,78.7,0.971,-3.95,-4.05,74.5,1.041,-6.6,-5.65,73.2,0.796,
-11.58,-9.37,80,1.572,-2.31,-2.16,78.6,0.969,-3.96,-4.07,74.6,1.04,-6.61,-5.66,73.3,0.795,
-11.55,-9.36,80,1.572,-2.32,-2.15,78.5,0.969,-3.93,-4.08,74.7,1.041,-6.61,-5.65,73.2,0.796,
-11.52,-9.36,80,1.573,-2.31,-2.14,78.5,0.969,-3.88,-4.09,74.7,1.042,-6.57,-5.64,73.2,0.796,
-11.56,-9.37,80,1.572,-2.34,-2.14,78.4,0.968,-3.88,-4.11,74.8,1.041,-6.59,-5.65,73.2,0.796,
-11.6,-9.38,80,1.573,-2.39,-2.13,78.3,0.967,-3.89,-4.14,74.9,1.041,-6.61,-5.66,73.2,0.796,
-11.54,-9.38,80,1.573,-2.37,-2.12,78.2,0.966,-3.82,-4.15,75,1.043,-6.57,-5.66,73.3,0.796,
-11.56,-9.38,80,1.574,-2.4,-2.11,78.2,0.965,-3.81,-4.17,75.1,1.042,-6.58,-5.66,73.3,0.796,
-11.58,-9.39,80,1.574,-2.44,-2.11,78,0.964,-3.81,-4.19,75.2,1.042,-6.6,-5.67,73.3,0.795,
-11.57,-9.38,80,1.573,-2.45,-2.09,77.9,0.963,-3.77,-4.21,75.3,1.042,-6.59,-5.66,73.2,0.796,
-11.54,-9.38,80,1.574,-2.44,-2.09,77.9,0.963,-3.72,-4.23,75.5,1.044,-6.56,-5.67,73.3,0.795,
-11.57,-9.39,80,1.573,-2.47,-2.09,77.8,0.962,-3.72,-4.25,75.5,1.044,-6.58,-5.68,73.3,0.795,
-11.59,-9.39,80,1.574,-2.51,-2.08,77.8,0.961,-3.72,-4.27,75.6,1.042,-6.6,-5.68,73.3,0.795,
-11.53,-9.39,80,1.574,-2.48,-2.07,77.7,0.962,-3.65,-4.29,75.7,1.044,-6.56,-5.67,73.2,0.795,
-11.53,-9.38,80,1.575,-2.5,-2.06,77.6,0.961,-3.63,-4.3,75.8,1.045,-6.57,-5.67,73.2,0.795,
-11.55,-9.39,80,1.575,-2.53,-2.06,77.6,0.959,-3.64,-4.31,75.9,1.044,-6.59,-5.66,73.2,0.796,
-11.53,-9.38,80,1.575,-2.53,-2.05,77.5,0.959,-3.61,-4.32,75.9,1.045,-6.54,-5.64,73.2,0.801,
-11.5,-9.39,80.1,1.577,-2.51,-2.04,77.5,0.959,-3.58,-4.32,75.9,1.045,-6.51,-5.63,73.1,0.802,
-11.52,-9.39,80,1.577,-2.54,-2.04,77.4,0.958,-3.59,-4.32,75.9,1.045,-6.53,-5.63,73.1,0.801,
-11.51,-9.38,80,1.577,-2.55,-2.03,77.4,0.958,-3.59,-4.32,75.9,1.046,-6.52,-5.63,73.2,0.801,
-11.45,-9.39,80.1,1.579,-2.51,-2.02,77.4,0.959,-3.53,-4.31,76,1.047,-6.48,-5.63,73.2,0.801,
-11.46,-9.39,80.1,1.579,-2.51,-2.02,77.4,0.959,-3.54,-4.31,76,1.046,-6.48,-5.62,73.1,0.803,
-11.48,-9.39,80.1,1.578,-2.51,-2.03,77.4,0.958,-3.55,-4.32,76,1.046,-6.49,-5.63,73.2,0.802,
-11.41,-9.38,80.1,1.579,-2.46,-2.03,77.5,0.96,-3.49,-4.31,76,1.048,-6.44,-5.62,73.2,0.803,
-11.42,-9.38,80.1,1.579,-2.46,-2.03,77.5,0.959,-3.49,-4.31,76,1.047,-6.45,-5.63,73.2,0.803,
-11.45,-9.39,80.1,1.579,-2.47,-2.03,77.5,0.959,-3.51,-4.31,76,1.048,-6.47,-5.63,73.2,0.803,
-11.4,-9.38,80.1,1.579,-2.44,-2.03,77.5,0.96,-3.47,-4.32,76,1.047,-6.44,-5.63,73.2,0.803,
-11.38,-9.38,80.1,1.581,-2.42,-2.03,77.5,0.96,-3.46,-4.31,76,1.047,-6.42,-5.63,73.2,0.803,
-11.4,-9.38,80.1,1.58,-2.43,-2.03,77.5,0.96,-3.47,-4.31,76,1.048,-6.45,-5.63,73.1,0.803,
-11.37,-9.37,80.1,1.581,-2.42,-2.04,77.5,0.96,-3.46,-4.31,76,1.049,-6.43,-5.64,73.3,0.803,
-11.32,-9.36,80.1,1.581,-2.38,-2.03,77.5,0.961,-3.42,-4.31,76,1.049,-6.38,-5.64,73.3,0.804,
-11.35,-9.37,80.1,1.581,-2.39,-2.04,77.6,0.96,-3.43,-4.31,76,1.049,-6.41,-5.64,73.2,0.803,
-11.35,-9.37,80.2,1.581,-2.4,-2.04,77.6,0.96,-3.44,-4.31,76,1.048,-6.42,-5.64,73.2,0.803,
-11.27,-9.35,80.1,1.583,-2.34,-2.03,77.6,0.962,-3.38,-4.3,76,1.051,-6.34,-5.63,73.3,0.805,
-11.28,-9.36,80.1,1.583,-2.34,-2.03,77.6,0.962,-3.39,-4.3,76,1.05,-6.37,-5.63,73.2,0.804,
-11.3,-9.36,80.2,1.583,-2.35,-2.04,77.6,0.96,-3.4,-4.3,76,1.05,-6.39,-5.63,73.2,0.803,
-11.22,-9.35,80.2,1.584,-2.3,-2.03,77.7,0.963,-3.35,-4.29,76,1.051,-6.34,-5.62,73.2,0.805,
-11.22,-9.35,80.2,1.585,-2.29,-2.04,77.7,0.962,-3.33,-4.29,76,1.051,-6.33,-5.62,73.1,0.804,
-11.23,-9.35,80.2,1.583,-2.3,-2.04,77.7,0.961,-3.35,-4.3,76,1.051,-6.34,-5.63,73.2,0.804,
-11.19,-9.34,80.2,1.585,-2.28,-2.04,77.7,0.962,-3.31,-4.29,76.1,1.052,-6.3,-5.63,73.3,0.805,
-11.17,-9.35,80.2,1.585,-2.25,-2.04,77.8,0.963,-3.28,-4.29,76.1,1.053,-6.3,-5.62,73.1,0.805,
-11.2,-9.36,80.2,1.585,-2.26,-2.04,77.8,0.962,-3.31,-4.29,76,1.052,-6.32,-5.64,73.3,0.804,
-11.2,-9.36,80.2,1.584,-2.28,-2.05,77.8,0.962,-3.31,-4.3,76,1.051,-6.33,-5.64,73.2,0.805,
-11.13,-9.34,80.2,1.586,-2.23,-2.04,77.8,0.963,-3.26,-4.3,76,1.052,-6.28,-5.64,73.2,0.805,
-11.13,-9.34,80.2,1.586,-2.23,-2.04,77.8,0.963,-3.26,-4.3,76.1,1.053,-6.28,-5.64,73.3,0.805,
-11.12,-9.33,80.2,1.587,-2.24,-2.04,77.8,0.962,-3.27,-4.3,76.1,1.052,-6.3,-5.63,73.2,0.805,
-11.06,-9.33,80.2,1.588,-2.19,-2.04,77.8,0.965,-3.21,-4.3,76.2,1.054,-6.24,-5.63,73.2,0.806,
-11.07,-9.33,80.2,1.588,-2.2,-2.04,77.8,0.964,-3.22,-4.29,76.1,1.054,-6.26,-5.63,73.2,0.805,
-11.08,-9.33,80.2,1.589,-2.21,-2.04,77.8,0.963,-3.23,-4.3,76.2,1.053,-6.28,-5.63,73.1,0.805,
-11,-9.31,80.2,1.589,-2.14,-2.04,77.9,0.966,-3.17,-4.29,76.2,1.055,-6.21,-5.62,73.2,0.806,
-10.99,-9.32,80.2,1.591,-2.14,-2.03,77.9,0.965,-3.16,-4.28,76.1,1.056,-6.21,-5.62,73.1,0.806,
-11.03,-9.32,80.2,1.59,-2.16,-2.04,77.9,0.964,-3.19,-4.28,76.1,1.055,-6.24,-5.63,73.1,0.805,
-10.97,-9.32,80.2,1.591,-2.13,-2.04,77.8,0.965,-3.14,-4.29,76.2,1.056,-6.2,-5.62,73.2,0.806,
-10.98,-9.32,80.2,1.591,-2.12,-2.04,77.9,0.965,-3.13,-4.29,76.2,1.057,-6.19,-5.63,73.2,0.806,
-11.02,-9.33,80.2,1.59,-2.15,-2.05,77.9,0.964,-3.16,-4.29,76.2,1.056,-6.21,-5.65,73.2,0.805,
-11.01,-9.33,80.2,1.591,-2.15,-2.05,77.8,0.965,-3.16,-4.3,76.2,1.056,-6.21,-5.64,73.2,0.806,
-10.96,-9.32,80.2,1.591,-2.12,-2.05,77.9,0.966,-3.11,-4.3,76.3,1.057,-6.18,-5.65,73.2,0.806,
-10.98,-9.32,80.2,1.59,-2.13,-2.05,77.9,0.965,-3.13,-4.29,76.2,1.057,-6.2,-5.66,73.2,0.804,
-10.99,-9.31,80.2,1.59,-2.15,-2.05,77.8,0.964,-3.15,-4.3,76.3,1.056,-6.2,-5.67,73.3,0.805,
-10.92,-9.3,80.2,1.591,-2.1,-2.04,77.9,0.965,-3.09,-4.3,76.4,1.057,-6.14,-5.68,73.5,0.806,
-10.95,-9.31,80.2,1.592,-2.11,-2.05,77.9,0.965,-3.11,-4.3,76.3,1.057,-6.16,-5.69,73.5,0.805,
-10.99,-9.32,80.2,1.592,-2.14,-2.05,77.9,0.964,-3.14,-4.31,76.3,1.057,-6.18,-5.69,73.5,0.804,
-10.94,-9.31,80.2,1.591,-2.11,-2.05,77.9,0.965,-3.1,-4.31,76.4,1.057,-6.14,-5.7,73.5,0.805,
-10.93,-9.31,80.2,1.593,-2.09,-2.05,77.9,0.966,-3.07,-4.31,76.4,1.058,-6.1,-5.71,73.7,0.806,
-10.96,-9.32,80.2,1.592,-2.11,-2.06,77.9,0.965,-3.1,-4.32,76.4,1.058,-6.13,-5.71,73.7,0.806,
-10.98,-9.32,80.2,1.591,-2.13,-2.06,77.9,0.964,-3.12,-4.33,76.5,1.057,-6.15,-5.71,73.6,0.805,
-10.91,-9.31,80.3,1.593,-2.09,-2.05,77.9,0.965,-3.06,-4.32,76.5,1.059,-6.09,-5.71,73.7,0.806,
-10.94,-9.32,80.3,1.593,-2.09,-2.06,78,0.966,-3.07,-4.32,76.5,1.058,-6.11,-5.71,73.7,0.806,
-10.98,-9.33,80.2,1.592,-2.13,-2.07,78,0.964,-3.11,-4.33,76.5,1.057,-6.14,-5.73,73.8,0.805,
-10.96,-9.32,80.2,1.592,-2.11,-2.06,77.9,0.965,-3.09,-4.33,76.5,1.057,-6.11,-5.74,73.9,0.806,
-10.95,-9.32,80.2,1.593,-2.1,-2.06,78,0.966,-3.08,-4.33,76.5,1.058,-6.1,-5.74,73.8,0.806,
-10.97,-9.32,80.2,1.593,-2.12,-2.06,77.9,0.964,-3.1,-4.33,76.5,1.058,-6.12,-5.74,73.8,0.805,
-10.98,-9.32,80.2,1.591,-2.14,-2.07,77.9,0.965,-3.13,-4.33,76.5,1.057,-6.15,-5.75,73.8,0.805,
-10.91,-9.3,80.2,1.592,-2.1,-2.05,77.9,0.966,-3.08,-4.33,76.5,1.059,-6.09,-5.74,73.8,0.806,
-10.93,-9.31,80.2,1.593,-2.1,-2.06,78,0.965,-3.09,-4.33,76.5,1.059,-6.11,-5.73,73.8,0.807,
-10.98,-9.31,80.2,1.593,-2.13,-2.07,78,0.964,-3.12,-4.33,76.5,1.057,-6.14,-5.75,73.8,0.804,
-10.95,-9.31,80.2,1.593,-2.12,-2.07,78,0.965,-3.1,-4.33,76.5,1.058,-6.12,-5.74,73.8,0.806,
-10.93,-9.31,80.2,1.595,-2.1,-2.07,78,0.965,-3.09,-4.33,76.5,1.058,-6.11,-5.73,73.7,0.806,
-10.97,-9.31,80.2,1.593,-2.13,-2.07,78,0.964,-3.11,-4.33,76.5,1.058,-6.14,-5.73,73.7,0.805,
-10.98,-9.31,80.2,1.593,-2.14,-2.07,77.9,0.964,-3.14,-4.33,76.5,1.057,-6.16,-5.74,73.6,0.804,
-10.93,-9.31,80.3,1.594,-2.1,-2.07,78,0.965,-3.08,-4.34,76.5,1.058,-6.13,-5.72,73.5,0.805,
-10.95,-9.31,80.2,1.594,-2.11,-2.08,78,0.965,-3.11,-4.33,76.5,1.058,-6.18,-5.7,73.2,0.804,
-10.98,-9.32,80.2,1.593,-2.13,-2.08,77.9,0.964,-3.16,-4.31,76.3,1.058,-6.23,-5.67,73,0.804,
-10.94,-9.32,80.2,1.594,-2.1,-2.08,78,0.965,-3.1,-4.32,76.4,1.059,-6.19,-5.66,72.9,0.806,
-11.11,-9.42,80.2,1.589,-2.09,-2.06,78,0.966,-3.11,-4.31,76.4,1.06,-6.21,-5.67,72.9,0.804,
-11.17,-9.45,80.2,1.585,-2.11,-2.06,77.9,0.964,-3.14,-4.31,76.4,1.059,-6.23,-5.68,73,0.804,
-11.14,-9.45,80.3,1.586,-2.09,-2.06,78,0.966,-3.12,-4.31,76.3,1.059,-6.22,-5.67,72.9,0.805,
-11.1,-9.44,80.3,1.585,-2.07,-2.04,78,0.966,-3.09,-4.31,76.4,1.06,-6.2,-5.67,72.9,0.805,
-11.09,-9.43,80.3,1.585,-2.07,-2.04,78,0.966,-3.1,-4.3,76.3,1.06,-6.22,-5.66,72.8,0.805,
-11.06,-9.42,80.3,1.586,-2.05,-2.03,78,0.966,-3.08,-4.29,76.3,1.06,-6.22,-5.66,72.8,0.805,
-11.02,-9.42,80.3,1.587,-2.01,-2.03,78,0.968,-3.04,-4.29,76.4,1.062,-6.18,-5.66,72.8,0.804,
-11.04,-9.42,80.3,1.588,-2.02,-2.03,78.1,0.967,-3.06,-4.28,76.3,1.061,-6.21,-5.67,72.8,0.803,
-11.04,-9.42,80.3,1.586,-2.02,-2.03,78,0.967,-3.06,-4.29,76.3,1.062,-6.22,-5.67,72.8,0.804,
-10.99,-9.42,80.3,1.587,-1.99,-2.02,78,0.968,-3.01,-4.28,76.4,1.062,-6.17,-5.67,72.9,0.805,
-11,-9.41,80.3,1.586,-1.99,-2.03,78.1,0.967,-3.03,-4.29,76.4,1.062,-6.2,-5.67,72.8,0.804,
-10.98,-9.41,80.3,1.586,-1.99,-2.02,78,0.967,-3.03,-4.28,76.3,1.062,-6.19,-5.68,72.9,0.805,
-10.94,-9.41,80.3,1.587,-1.96,-2.02,78,0.968,-3,-4.28,76.3,1.062,-6.16,-5.67,72.8,0.805,
-10.97,-9.41,80.3,1.585,-1.98,-2.02,78,0.968,-3.02,-4.28,76.3,1.062,-6.2,-5.67,72.8,0.805,
-10.97,-9.41,80.3,1.585,-1.98,-2.02,78,0.967,-3.03,-4.29,76.3,1.062,-6.2,-5.67,72.8,0.805,
-10.8,-9.32,80.4,1.591,-1.97,-2.03,78,0.967,-3,-4.29,76.3,1.061,-6.17,-5.67,72.8,0.805,
-10.86,-9.32,80.3,1.598,-2.04,-2.07,78,0.965,-3.05,-4.31,76.3,1.059,-6.2,-5.68,72.8,0.804,
-10.89,-9.33,80.4,1.599,-2.07,-2.09,78,0.965,-3.07,-4.33,76.3,1.058,-6.2,-5.7,72.9,0.805,
-10.9,-9.34,80.4,1.6,-2.07,-2.1,78,0.964,-3.04,-4.34,76.5,1.059,-6.14,-5.74,73.3,0.804,
-10.96,-9.36,80.4,1.6,-2.11,-2.11,78,0.964,-3.09,-4.35,76.4,1.057,-6.17,-5.76,73.3,0.802,
-10.96,-9.36,80.4,1.599,-2.13,-2.12,78,0.964,-3.09,-4.37,76.5,1.057,-6.17,-5.75,73.3,0.804,
-10.93,-9.37,80.4,1.6,-2.1,-2.12,78,0.964,-3.05,-4.37,76.5,1.058,-6.13,-5.74,73.3,0.804,
-10.98,-9.39,80.4,1.599,-2.13,-2.13,78,0.964,-3.08,-4.38,76.5,1.057,-6.15,-5.75,73.3,0.803,
-11.01,-9.39,80.4,1.597,-2.15,-2.14,78,0.963,-3.09,-4.38,76.5,1.057,-6.16,-5.76,73.4,0.803,
-10.99,-9.4,80.4,1.598,-2.13,-2.14,78,0.963,-3.06,-4.38,76.5,1.058,-6.13,-5.75,73.3,0.804,
-11.03,-9.41,80.4,1.597,-2.16,-2.14,78,0.963,-3.1,-4.39,76.5,1.057,-6.16,-5.75,73.3,0.804,
-11.08,-9.42,80.4,1.596,-2.19,-2.15,78,0.963,-3.13,-4.4,76.5,1.056,-6.19,-5.76,73.3,0.803,
-11.04,-9.42,80.4,1.596,-2.15,-2.16,78,0.964,-3.08,-4.4,76.6,1.058,-6.15,-5.77,73.4,0.803,
-11.08,-9.43,80.4,1.595,-2.18,-2.16,78,0.963,-3.11,-4.41,76.6,1.056,-6.18,-5.77,73.3,0.803,
-11.14,-9.45,80.4,1.595,-2.22,-2.17,78,0.962,-3.15,-4.42,76.6,1.056,-6.22,-5.79,73.3,0.801,
-11.14,-9.45,80.4,1.594,-2.23,-2.18,77.9,0.962,-3.17,-4.42,76.6,1.055,-6.23,-5.79,73.3,0.801,
-11.11,-9.44,80.4,1.594,-2.21,-2.18,78,0.962,-3.14,-4.43,76.7,1.055,-6.2,-5.79,73.3,0.802,
-11.15,-9.46,80.4,1.594,-2.23,-2.18,78,0.961,-3.17,-4.43,76.6,1.056,-6.22,-5.8,73.3,0.801,
-11.21,-9.46,80.3,1.594,-2.27,-2.19,78,0.96,-3.21,-4.44,76.6,1.055,-6.25,-5.79,73.3,0.802,
-11.15,-9.46,80.4,1.594,-2.24,-2.19,78.1,0.962,-3.17,-4.44,76.7,1.055,-6.21,-5.8,73.4,0.802,
-11.17,-9.47,80.4,1.595,-2.24,-2.19,78,0.962,-3.17,-4.44,76.7,1.056,-6.21,-5.8,73.4,0.803,
-11.23,-9.48,80.3,1.594,-2.27,-2.2,78,0.961,-3.21,-4.45,76.6,1.055,-6.24,-5.8,73.3,0.802,
-11.25,-9.49,80.3,1.594,-2.29,-2.21,78,0.96,-3.24,-4.45,76.6,1.054,-6.27,-5.8,73.3,0.802,
-11.21,-9.49,80.3,1.595,-2.25,-2.21,78.1,0.962,-3.19,-4.46,76.7,1.055,-6.23,-5.79,73.2,0.801,
-11.24,-9.49,80.3,1.595,-2.27,-2.21,78,0.961,-3.21,-4.45,76.6,1.055,-6.25,-5.8,73.3,0.801,
-11.28,-9.5,80.3,1.595,-2.3,-2.22,78,0.96,-3.25,-4.46,76.6,1.053,-6.26,-5.81,73.4,0.802,
-11.26,-9.5,80.3,1.595,-2.29,-2.22,78,0.961,-3.22,-4.47,76.7,1.054,-6.25,-5.81,73.3,0.801,
-11.27,-9.5,80.3,1.595,-2.28,-2.22,78,0.961,-3.21,-4.48,76.7,1.054,-6.24,-5.81,73.3,0.802,
-11.31,-9.51,80.2,1.595,-2.3,-2.23,78,0.96,-3.24,-4.48,76.8,1.054,-6.27,-5.82,73.3,0.801,
-11.33,-9.51,80.2,1.594,-2.32,-2.24,78,0.96,-3.26,-4.49,76.7,1.053,-6.3,-5.83,73.3,0.8,
-11.28,-9.5,80.3,1.595,-2.29,-2.24,78,0.961,-3.22,-4.49,76.7,1.054,-6.23,-5.83,73.4,0.802,
-11.3,-9.51,80.3,1.595,-2.3,-2.24,78,0.961,-3.23,-4.5,76.8,1.054,-6.27,-5.83,73.3,0.801,
-11.34,-9.52,80.3,1.595,-2.32,-2.24,78,0.96,-3.26,-4.5,76.7,1.054,-6.28,-5.84,73.4,0.8,
-11.31,-9.51,80.2,1.595,-2.29,-2.24,78,0.961,-3.22,-4.5,76.8,1.054,-6.25,-5.83,73.3,0.801,
-11.32,-9.52,80.2,1.594,-2.3,-2.25,78,0.961,-3.23,-4.5,76.8,1.055,-6.25,-5.83,73.3,0.802,
-11.34,-9.52,80.2,1.595,-2.31,-2.25,78,0.96,-3.25,-4.51,76.8,1.054,-6.27,-5.84,73.3,0.801,
-11.3,-9.52,80.2,1.595,-2.28,-2.25,78,0.962,-3.21,-4.51,76.8,1.054,-6.24,-5.83,73.3,0.802,
-11.3,-9.52,80.2,1.595,-2.26,-2.25,78.1,0.962,-3.2,-4.51,76.8,1.054,-6.23,-5.83,73.3,0.802,
-11.32,-9.52,80.2,1.594,-2.28,-2.25,78,0.96,-3.23,-4.51,76.8,1.054,-6.25,-5.84,73.3,0.802,
-11.33,-9.54,80.2,1.59,-2.24,-2.23,78,0.962,-3.2,-4.52,76.9,1.056,-6.24,-5.84,73.3,0.802,
-11.4,-9.59,80.2,1.585,-2.2,-2.21,78.1,0.963,-3.17,-4.52,76.9,1.057,-6.21,-5.85,73.4,0.803,
-11.35,-9.56,80.2,1.585,-2.2,-2.2,78,0.961,-3.18,-4.51,76.8,1.056,-6.23,-5.86,73.4,0.802,
-11.27,-9.49,80.2,1.595,-2.19,-2.21,78,0.958,-3.16,-4.51,76.8,1.056,-6.24,-5.88,73.4,0.8,
-11.26,-9.49,80.2,1.608,-2.18,-2.23,78.2,0.956,-3.1,-4.51,76.9,1.058,-6.2,-5.88,73.5,0.801,
-11.33,-9.51,80.2,1.614,-2.2,-2.25,78.2,0.954,-3.12,-4.52,76.9,1.056,-6.2,-5.91,73.6,0.8,
-11.4,-9.54,80.3,1.617,-2.24,-2.26,78.2,0.952,-3.15,-4.53,76.8,1.055,-6.22,-5.93,73.7,0.799,
-11.38,-9.55,80.3,1.62,-2.21,-2.27,78.2,0.952,-3.11,-4.54,76.9,1.055,-6.17,-5.93,73.8,0.801,
-11.42,-9.56,80.2,1.622,-2.21,-2.28,78.3,0.951,-3.1,-4.55,76.9,1.056,-6.16,-5.95,73.9,0.8,
-11.46,-9.57,80.2,1.622,-2.23,-2.29,78.3,0.95,-3.11,-4.55,76.9,1.056,-6.17,-5.94,73.8,0.801,
-11.43,-9.57,80.2,1.623,-2.2,-2.29,78.3,0.951,-3.08,-4.54,76.9,1.056,-6.12,-5.94,74,0.802,
-11.43,-9.59,80.3,1.623,-2.18,-2.3,78.4,0.952,-3.05,-4.54,76.9,1.057,-6.11,-5.95,73.9,0.802,
-11.47,-9.6,80.3,1.624,-2.2,-2.3,78.3,0.95,-3.07,-4.54,76.9,1.057,-6.12,-5.96,74.1,0.802,
-11.48,-9.61,80.3,1.624,-2.19,-2.3,78.3,0.951,-3.05,-4.53,76.9,1.058,-6.11,-5.96,74.1,0.802,
-11.46,-9.61,80.3,1.625,-2.17,-2.31,78.3,0.951,-3.02,-4.53,76.8,1.058,-6.09,-5.98,74.2,0.801,
-11.51,-9.63,80.3,1.625,-2.18,-2.31,78.4,0.951,-3.03,-4.53,76.9,1.058,-6.11,-5.97,74.1,0.801,
-11.54,-9.65,80.3,1.626,-2.18,-2.32,78.4,0.952,-3.04,-4.53,76.8,1.058,-6.13,-5.99,74.1,0.8,
-11.53,-9.66,80.3,1.626,-2.15,-2.32,78.4,0.953,-3,-4.53,76.8,1.059,-6.09,-6,74.2,0.801,
-11.56,-9.66,80.3,1.623,-2.15,-2.31,78.4,0.955,-3.02,-4.52,76.7,1.059,-6.12,-6,74.1,0.8,
-11.57,-9.67,80.2,1.614,-2.14,-2.29,78.4,0.958,-3.05,-4.53,76.7,1.057,-6.13,-6,74.1,0.8,
-11.51,-9.68,80.3,1.612,-2.16,-2.31,78.4,0.959,-3.06,-4.55,76.7,1.057,-6.08,-6.01,74.3,0.801,
-11.51,-9.68,80.3,1.612,-2.19,-2.32,78.3,0.957,-3.09,-4.55,76.7,1.057,-6.1,-5.99,74.1,0.801,
-11.5,-9.69,80.3,1.613,-2.2,-2.33,78.3,0.956,-3.1,-4.56,76.7,1.057,-6.12,-6.01,74.2,0.801,
-11.43,-9.68,80.3,1.614,-2.15,-2.32,78.3,0.958,-3.04,-4.54,76.7,1.058,-6.06,-6.01,74.3,0.801,
-11.43,-9.69,80.3,1.615,-2.16,-2.32,78.3,0.958,-3.04,-4.54,76.7,1.059,-6.07,-5.99,74.2,0.802,
-11.44,-9.69,80.3,1.616,-2.16,-2.32,78.3,0.958,-3.04,-4.53,76.7,1.059,-6.09,-5.98,74.1,0.801,
-11.37,-9.68,80.3,1.617,-2.11,-2.32,78.3,0.96,-2.97,-4.52,76.7,1.061,-6.04,-5.96,74,0.802,
-11.37,-9.69,80.4,1.618,-2.11,-2.32,78.3,0.96,-2.97,-4.51,76.7,1.062,-6.06,-5.95,73.9,0.802,
-11.41,-9.7,80.3,1.619,-2.12,-2.32,78.3,0.961,-3.01,-4.5,76.5,1.062,-6.1,-5.95,73.8,0.801,
-11.38,-9.71,80.3,1.619,-2.09,-2.32,78.3,0.962,-2.97,-4.5,76.6,1.062,-6.12,-5.91,73.5,0.8,
-11.41,-9.72,80.3,1.618,-2.11,-2.32,78.3,0.961,-2.99,-4.51,76.6,1.062,-6.16,-5.89,73.3,0.801,
-11.46,-9.73,80.3,1.617,-2.14,-2.32,78.2,0.961,-3.04,-4.53,76.7,1.06,-6.21,-5.9,73.1,0.799,
-11.44,-9.73,80.3,1.616,-2.12,-2.33,78.3,0.962,-3.02,-4.53,76.7,1.06,-6.19,-5.91,73.2,0.799,
-11.44,-9.73,80.3,1.615,-2.12,-2.32,78.3,0.963,-3.04,-4.54,76.7,1.06,-6.19,-5.9,73.2,0.8,
-11.47,-9.74,80.3,1.615,-2.16,-2.33,78.2,0.961,-3.08,-4.55,76.7,1.058,-6.22,-5.91,73.2,0.799,
-11.46,-9.74,80.3,1.614,-2.15,-2.34,78.3,0.962,-3.07,-4.56,76.7,1.059,-6.22,-5.91,73.2,0.799,
-11.47,-9.75,80.3,1.616,-2.17,-2.34,78.3,0.961,-3.07,-4.57,76.8,1.058,-6.22,-5.92,73.2,0.799,
-11.51,-9.76,80.3,1.614,-2.21,-2.35,78.3,0.961,-3.12,-4.58,76.8,1.057,-6.26,-5.93,73.2,0.797,
-11.49,-9.76,80.3,1.614,-2.21,-2.35,78.2,0.961,-3.11,-4.58,76.7,1.057,-6.24,-5.91,73.1,0.799,
-11.47,-9.76,80.3,1.615,-2.21,-2.36,78.2,0.96,-3.1,-4.58,76.8,1.057,-6.23,-5.91,73.1,0.799,
-11.49,-9.76,80.3,1.614,-2.24,-2.36,78.2,0.959,-3.13,-4.59,76.8,1.056,-6.26,-5.9,73,0.798,
-11.47,-9.76,80.3,1.614,-2.24,-2.36,78.1,0.959,-3.11,-4.59,76.8,1.057,-6.24,-5.9,73.1,0.798,
-11.46,-9.76,80.3,1.615,-2.23,-2.36,78.2,0.96,-3.11,-4.59,76.8,1.057,-6.22,-5.89,73,0.8,
-11.5,-9.76,80.3,1.616,-2.26,-2.37,78.2,0.958,-3.14,-4.6,76.9,1.056,-6.25,-5.89,73,0.799,
-11.52,-9.77,80.3,1.615,-2.28,-2.37,78.2,0.958,-3.15,-4.61,76.9,1.055,-6.26,-5.91,73,0.798,
-11.52,-9.78,80.3,1.616,-2.29,-2.38,78.1,0.958,-3.14,-4.62,77,1.055,-6.24,-5.91,73.1,0.798,
-11.57,-9.79,80.3,1.615,-2.32,-2.39,78.1,0.957,-3.19,-4.63,76.9,1.053,-6.28,-5.92,73,0.797,
-11.6,-9.8,80.3,1.615,-2.35,-2.4,78.1,0.957,-3.21,-4.65,77,1.052,-6.31,-5.91,72.9,0.798,
-11.58,-9.8,80.3,1.615,-2.35,-2.4,78.1,0.957,-3.19,-4.65,77,1.053,-6.28,-5.92,73,0.798,
-11.62,-9.8,80.2,1.617,-2.37,-2.41,78.2,0.956,-3.22,-4.66,76.9,1.052,-6.28,-5.95,73.3,0.797,
-11.64,-9.81,80.3,1.617,-2.4,-2.41,78.1,0.955,-3.25,-4.66,76.9,1.052,-6.27,-5.97,73.4,0.798,
-11.58,-9.8,80.3,1.617,-2.37,-2.41,78.1,0.956,-3.2,-4.66,77,1.053,-6.21,-5.96,73.5,0.799,
-11.57,-9.78,80.2,1.618,-2.38,-2.4,78.1,0.955,-3.21,-4.65,77,1.053,-6.21,-5.97,73.5,0.799,
-11.56,-9.78,80.3,1.62,-2.38,-2.41,78.2,0.955,-3.21,-4.65,77,1.054,-6.21,-5.96,73.5,0.799,
-11.5,-9.76,80.3,1.622,-2.34,-2.4,78.2,0.957,-3.16,-4.64,76.9,1.055,-6.16,-5.94,73.5,0.8,
-11.5,-9.76,80.3,1.625,-2.34,-2.39,78.1,0.957,-3.15,-4.63,76.9,1.056,-6.17,-5.94,73.5,0.799,
-11.55,-9.77,80.3,1.63,-2.35,-2.4,78.2,0.956,-3.17,-4.63,76.9,1.055,-6.19,-5.93,73.3,0.799,
-11.55,-9.78,80.3,1.63,-2.32,-2.39,78.2,0.957,-3.12,-4.62,77,1.057,-6.14,-5.93,73.5,0.8,
-11.6,-9.8,80.3,1.629,-2.33,-2.4,78.2,0.959,-3.14,-4.63,77,1.056,-6.15,-5.93,73.5,0.801,
-11.63,-9.81,80.2,1.627,-2.35,-2.39,78.2,0.958,-3.16,-4.63,76.9,1.055,-6.18,-5.93,73.4,0.8,
-11.61,-9.81,80.2,1.626,-2.33,-2.4,78.2,0.959,-3.13,-4.64,77,1.056,-6.15,-5.95,73.5,0.801,
-11.67,-9.82,80.2,1.625,-2.35,-2.4,78.2,0.959,-3.17,-4.64,77,1.056,-6.21,-5.96,73.4,0.798,
-11.72,-9.84,80.2,1.622,-2.38,-2.41,78.2,0.959,-3.23,-4.66,76.9,1.054,-6.24,-5.97,73.5,0.799,
-11.69,-9.83,80.2,1.621,-2.36,-2.41,78.2,0.961,-3.2,-4.66,77,1.054,-6.22,-5.98,73.6,0.799,
-11.72,-9.84,80.2,1.62,-2.37,-2.41,78.2,0.96,-3.23,-4.67,77,1.053,-6.26,-5.99,73.5,0.797,
-11.75,-9.85,80.3,1.62,-2.4,-2.42,78.1,0.959,-3.25,-4.68,77,1.053,-6.28,-5.99,73.5,0.797,
-11.75,-9.86,80.2,1.619,-2.39,-2.42,78.2,0.96,-3.24,-4.68,77,1.053,-6.25,-6,73.6,0.797,
-11.77,-9.86,80.2,1.62,-2.4,-2.42,78.2,0.961,-3.27,-4.68,76.9,1.053,-6.28,-6,73.5,0.797,
-11.77,-9.87,80.3,1.62,-2.41,-2.43,78.2,0.961,-3.27,-4.69,77,1.052,-6.29,-5.99,73.4,0.796,
-11.73,-9.86,80.3,1.62,-2.37,-2.42,78.2,0.963,-3.23,-4.69,77,1.054,-6.25,-5.99,73.5,0.796,
-11.75,-9.87,80.2,1.62,-2.39,-2.42,78.2,0.962,-3.24,-4.69,77,1.053,-6.26,-5.99,73.5,0.797,
-11.76,-9.87,80.3,1.62,-2.39,-2.43,78.2,0.962,-3.25,-4.69,77,1.053,-6.26,-5.99,73.5,0.798,
-11.74,-9.88,80.3,1.621,-2.37,-2.43,78.2,0.963,-3.22,-4.69,77,1.054,-6.24,-5.99,73.5,0.798,
-11.77,-9.88,80.3,1.622,-2.39,-2.43,78.3,0.963,-3.25,-4.7,77,1.053,-6.26,-6,73.5,0.797,
-11.79,-9.89,80.3,1.623,-2.39,-2.43,78.3,0.963,-3.25,-4.7,77,1.053,-6.27,-6.01,73.5,0.796,
-11.78,-9.9,80.3,1.622,-2.37,-2.43,78.3,0.964,-3.23,-4.7,77,1.054,-6.25,-6.02,73.6,0.795,
-11.82,-9.91,80.3,1.62,-2.4,-2.43,78.3,0.963,-3.27,-4.72,77,1.052,-6.29,-6.02,73.5,0.796,
-11.84,-9.92,80.3,1.621,-2.4,-2.44,78.3,0.963,-3.28,-4.72,77.1,1.052,-6.31,-6.02,73.5,0.796,
-11.81,-9.91,80.3,1.621,-2.39,-2.43,78.3,0.964,-3.27,-4.72,77,1.052,-6.3,-6.03,73.5,0.795,
-11.84,-9.93,80.4,1.62,-2.4,-2.44,78.3,0.964,-3.29,-4.72,77,1.053,-6.32,-6.03,73.5,0.795,
-11.85,-9.93,80.3,1.621,-2.41,-2.44,78.3,0.963,-3.3,-4.73,77,1.052,-6.33,-6.03,73.5,0.794,
-11.84,-9.94,80.4,1.622,-2.4,-2.44,78.3,0.964,-3.29,-4.73,77,1.051,-6.3,-6.03,73.5,0.795,
-11.87,-9.95,80.4,1.621,-2.42,-2.45,78.3,0.963,-3.3,-4.74,77.1,1.052,-6.33,-6.04,73.5,0.795,
-11.88,-9.96,80.4,1.621,-2.41,-2.45,78.3,0.964,-3.31,-4.74,77,1.051,-6.32,-6.04,73.5,0.795,
-11.84,-9.96,80.4,1.62,-2.39,-2.44,78.3,0.965,-3.27,-4.74,77.1,1.053,-6.29,-6.03,73.5,0.796,
-11.87,-9.96,80.4,1.62,-2.4,-2.44,78.3,0.965,-3.29,-4.74,77.1,1.053,-6.3,-6.04,73.5,0.796,
-11.87,-9.96,80.4,1.621,-2.4,-2.45,78.4,0.965,-3.31,-4.74,77,1.052,-6.32,-6.04,73.5,0.794,
-11.84,-9.97,80.5,1.622,-2.38,-2.45,78.4,0.966,-3.27,-4.74,77.1,1.052,-6.29,-6.04,73.5,0.796,
-11.86,-9.97,80.5,1.623,-2.4,-2.44,78.4,0.965,-3.3,-4.74,77,1.052,-6.32,-6.03,73.4,0.795,
-11.9,-9.98,80.4,1.621,-2.41,-2.45,78.4,0.966,-3.31,-4.75,77.1,1.052,-6.35,-6.05,73.5,0.793,
-11.86,-9.98,80.5,1.622,-2.38,-2.45,78.5,0.967,-3.28,-4.76,77.2,1.052,-6.31,-6.04,73.5,0.796,
-11.89,-9.99,80.5,1.621,-2.4,-2.45,78.4,0.966,-3.31,-4.76,77.1,1.052,-6.34,-6.04,73.4,0.795,
-11.93,-9.99,80.5,1.621,-2.42,-2.45,78.4,0.966,-3.34,-4.76,77,1.051,-6.38,-6.05,73.4,0.793,
-11.88,-9.99,80.5,1.621,-2.39,-2.45,78.4,0.967,-3.3,-4.76,77.1,1.052,-6.33,-6.05,73.5,0.795,
-11.9,-10,80.5,1.623,-2.4,-2.45,78.4,0.967,-3.32,-4.77,77.1,1.052,-6.34,-6.05,73.5,0.795,
-11.93,-10,80.5,1.621,-2.42,-2.45,78.4,0.967,-3.34,-4.77,77.1,1.052,-6.35,-6.07,73.6,0.794,
-11.87,-9.99,80.5,1.621,-2.38,-2.45,78.4,0.967,-3.3,-4.76,77.1,1.052,-6.29,-6.07,73.7,0.795,
-11.82,-9.98,80.5,1.621,-2.36,-2.44,78.4,0.968,-3.28,-4.76,77.2,1.054,-6.28,-6.05,73.6,0.796,
-11.82,-9.97,80.5,1.622,-2.37,-2.44,78.5,0.968,-3.29,-4.75,77.1,1.054,-6.3,-6.05,73.6,0.794,
-11.78,-9.96,80.5,1.623,-2.35,-2.43,78.5,0.969,-3.26,-4.75,77.2,1.054,-6.26,-6.04,73.6,0.796,
-11.77,-9.96,80.5,1.624,-2.32,-2.43,78.6,0.97,-3.24,-4.75,77.2,1.055,-6.23,-6.04,73.7,0.797,
-11.79,-9.97,80.5,1.623,-2.33,-2.43,78.5,0.97,-3.26,-4.75,77.1,1.054,-6.27,-6.04,73.6,0.796,
-11.78,-9.96,80.5,1.623,-2.33,-2.43,78.5,0.97,-3.25,-4.74,77.1,1.055,-6.24,-6.04,73.7,0.797,
-11.75,-9.96,80.5,1.624,-2.3,-2.42,78.5,0.97,-3.22,-4.75,77.2,1.056,-6.22,-6.04,73.7,0.797,
-11.76,-9.96,80.6,1.623,-2.32,-2.42,78.5,0.97,-3.23,-4.75,77.2,1.055,-6.24,-6.04,73.7,0.797,
-11.78,-9.97,80.6,1.625,-2.33,-2.42,78.5,0.969,-3.25,-4.75,77.2,1.054,-6.24,-6.03,73.7,0.798,
-11.76,-9.97,80.6,1.625,-2.31,-2.43,78.5,0.97,-3.22,-4.75,77.2,1.056,-6.22,-6.04,73.7,0.798,
-11.77,-9.97,80.6,1.626,-2.32,-2.43,78.5,0.97,-3.23,-4.76,77.2,1.056,-6.22,-6.05,73.8,0.797,
-11.76,-9.96,80.6,1.627,-2.32,-2.42,78.4,0.97,-3.24,-4.75,77.2,1.056,-6.23,-6.04,73.8,0.798,
-11.74,-9.97,80.6,1.627,-2.3,-2.42,78.5,0.971,-3.21,-4.75,77.2,1.056,-6.19,-6.05,73.9,0.798,
-11.79,-9.98,80.6,1.625,-2.32,-2.43,78.5,0.97,-3.24,-4.75,77.2,1.056,-6.23,-6.06,73.8,0.797,
-11.84,-10,80.6,1.624,-2.35,-2.43,78.4,0.97,-3.28,-4.76,77.1,1.054,-6.28,-6.06,73.7,0.796,
-11.84,-10.01,80.6,1.624,-2.34,-2.44,78.4,0.97,-3.28,-4.77,77.2,1.054,-6.27,-6.08,73.8,0.796,
-11.88,-10.02,80.6,1.623,-2.36,-2.44,78.5,0.971,-3.31,-4.78,77.2,1.052,-6.31,-6.08,73.6,0.795,
-11.91,-10.03,80.6,1.62,-2.38,-2.44,78.4,0.971,-3.34,-4.79,77.2,1.052,-6.34,-6.08,73.6,0.794,
-11.85,-10.02,80.6,1.618,-2.34,-2.44,78.4,0.972,-3.31,-4.79,77.2,1.053,-6.3,-6.07,73.5,0.796,
-11.86,-10.02,80.6,1.617,-2.35,-2.44,78.4,0.972,-3.33,-4.79,77.1,1.053,-6.3,-6.08,73.6,0.796,
-11.86,-10.02,80.6,1.617,-2.36,-2.44,78.4,0.973,-3.34,-4.8,77.2,1.051,-6.31,-6.06,73.5,0.797,
-11.83,-10.03,80.6,1.618,-2.33,-2.44,78.5,0.973,-3.3,-4.8,77.3,1.053,-6.27,-6.07,73.7,0.797,
-11.86,-10.03,80.6,1.617,-2.34,-2.44,78.5,0.973,-3.32,-4.8,77.2,1.052,-6.28,-6.08,73.7,0.796,
-11.84,-10.03,80.6,1.617,-2.34,-2.44,78.5,0.973,-3.32,-4.8,77.2,1.052,-6.28,-6.07,73.6,0.797,
-11.81,-10.03,80.6,1.617,-2.31,-2.44,78.4,0.973,-3.28,-4.8,77.3,1.053,-6.26,-6.07,73.6,0.796,
-11.83,-10.02,80.6,1.614,-2.32,-2.44,78.4,0.974,-3.3,-4.8,77.2,1.053,-6.27,-6.07,73.6,0.797,
-11.8,-10.02,80.6,1.615,-2.3,-2.43,78.5,0.975,-3.29,-4.8,77.2,1.053,-6.25,-6.07,73.6,0.797,
-11.79,-10.03,80.6,1.616,-2.29,-2.44,78.5,0.975,-3.27,-4.8,77.2,1.054,-6.25,-6.07,73.6,0.796,
-11.81,-10.03,80.6,1.616,-2.31,-2.44,78.5,0.974,-3.3,-4.8,77.2,1.053,-6.26,-6.08,73.7,0.797,
-11.81,-10.04,80.6,1.616,-2.31,-2.44,78.4,0.975,-3.29,-4.81,77.2,1.053,-6.27,-6.08,73.5,0.796,
-11.79,-10.04,80.6,1.617,-2.29,-2.45,78.5,0.975,-3.28,-4.81,77.2,1.053,-6.25,-6.09,73.6,0.795,
-11.83,-10.05,80.6,1.618,-2.31,-2.45,78.5,0.974,-3.3,-4.82,77.3,1.053,-6.26,-6.08,73.6,0.796,
-11.83,-10.05,80.6,1.616,-2.31,-2.45,78.4,0.975,-3.3,-4.82,77.2,1.052,-6.27,-6.09,73.6,0.795,
-11.82,-10.06,80.7,1.617,-2.29,-2.45,78.5,0.975,-3.28,-4.82,77.2,1.052,-6.26,-6.1,73.7,0.795,
-11.85,-10.06,80.7,1.615,-2.3,-2.45,78.5,0.974,-3.31,-4.82,77.2,1.052,-6.28,-6.11,73.7,0.795,
-11.82,-10.06,80.7,1.615,-2.29,-2.45,78.5,0.976,-3.3,-4.83,77.2,1.052,-6.27,-6.11,73.7,0.795,
-11.8,-10.06,80.7,1.614,-2.27,-2.45,78.5,0.976,-3.27,-4.82,77.2,1.052,-6.24,-6.11,73.7,0.796,
-11.8,-10.06,80.7,1.613,-2.29,-2.45,78.4,0.976,-3.29,-4.82,77.2,1.052,-6.25,-6.11,73.7,0.795,
-11.76,-10.05,80.7,1.612,-2.26,-2.45,78.5,0.977,-3.27,-4.82,77.2,1.052,-6.23,-6.1,73.7,0.795,
-11.76,-10.06,80.7,1.612,-2.25,-2.45,78.5,0.977,-3.25,-4.82,77.3,1.052,-6.24,-6.11,73.7,0.794,
-11.78,-10.06,80.7,1.612,-2.26,-2.45,78.5,0.977,-3.28,-4.82,77.2,1.052,-6.24,-6.1,73.7,0.797,
-11.72,-10.06,80.7,1.612,-2.23,-2.45,78.5,0.978,-3.23,-4.82,77.3,1.053,-6.19,-6.1,73.7,0.797,
-11.72,-10.06,80.7,1.613,-2.23,-2.45,78.5,0.978,-3.24,-4.82,77.2,1.053,-6.21,-6.1,73.7,0.795,
-11.76,-10.07,80.7,1.61,-2.25,-2.45,78.5,0.977,-3.26,-4.82,77.2,1.053,-6.22,-6.11,73.7,0.795,
-11.73,-10.08,80.7,1.603,-2.2,-2.43,78.5,0.98,-3.22,-4.82,77.3,1.053,-6.17,-6.12,73.9,0.796,
-11.8,-10.12,80.7,1.584,-2.13,-2.39,78.5,0.98,-3.21,-4.79,77.2,1.056,-6.18,-6.1,73.7,0.795,
-11.75,-10.08,80.7,1.58,-2.13,-2.38,78.5,0.976,-3.25,-4.81,77.2,1.056,-6.18,-6.09,73.8,0.796,
-11.65,-10.06,80.8,1.581,-2.14,-2.4,78.5,0.971,-3.18,-4.77,77.2,1.056,-6.13,-6.07,73.8,0.798,
-11.54,-10.01,80.9,1.577,-2.14,-2.4,78.5,0.971,-3.19,-4.77,77.1,1.055,-6.14,-6.09,73.9,0.797,
-11.53,-10.02,81,1.574,-2.17,-2.41,78.5,0.968,-3.19,-4.76,77,1.055,-6.17,-6.06,73.6,0.796,
-11.45,-10.02,81.1,1.575,-2.16,-2.4,78.5,0.968,-3.18,-4.75,77,1.056,-6.14,-6.07,73.7,0.796,
-11.35,-10,81.1,1.576,-2.13,-2.4,78.5,0.969,-3.15,-4.74,77,1.057,-6.12,-6.07,73.8,0.795,
-11.3,-9.99,81.1,1.577,-2.14,-2.39,78.5,0.968,-3.15,-4.73,77,1.056,-6.12,-6.04,73.6,0.797,
-11.25,-9.96,81.1,1.577,-2.13,-2.39,78.4,0.967,-3.16,-4.74,77,1.057,-6.13,-6.06,73.7,0.795,
-11.14,-9.94,81.1,1.578,-2.08,-2.37,78.5,0.967,-3.12,-4.73,77,1.058,-6.07,-6.05,73.8,0.797,
-11.11,-9.92,81,1.577,-2.09,-2.37,78.4,0.967,-3.13,-4.72,77,1.058,-6.09,-6.04,73.7,0.797,
-11.12,-9.91,80.9,1.576,-2.1,-2.36,78.5,0.966,-3.14,-4.71,77,1.058,-6.12,-6.04,73.7,0.796,
-11.06,-9.89,80.8,1.575,-2.07,-2.36,78.5,0.968,-3.11,-4.7,76.9,1.06,-6.07,-6.04,73.8,0.797,
-11.06,-9.86,80.7,1.574,-2.07,-2.35,78.5,0.967,-3.13,-4.7,76.9,1.059,-6.1,-6.04,73.7,0.796,
-11.06,-9.84,80.6,1.572,-2.09,-2.35,78.5,0.966,-3.15,-4.69,76.9,1.058,-6.14,-6.04,73.7,0.795,
-11.02,-9.8,80.5,1.57,-2.08,-2.34,78.5,0.966,-3.16,-4.69,76.9,1.058,-6.15,-6.05,73.7,0.794,
-10.98,-9.77,80.4,1.568,-2.05,-2.33,78.5,0.967,-3.16,-4.69,76.8,1.059,-6.13,-6.04,73.7,0.796,
-10.99,-9.75,80.4,1.568,-2.06,-2.31,78.4,0.966,-3.2,-4.7,76.8,1.058,-6.17,-6.05,73.6,0.794,
-11.03,-9.75,80.4,1.565,-2.08,-2.32,78.5,0.966,-3.24,-4.7,76.8,1.057,-6.2,-6.06,73.6,0.793,
-11.04,-9.74,80.3,1.563,-2.07,-2.32,78.5,0.966,-3.23,-4.71,76.8,1.057,-6.19,-6.06,73.6,0.794,
-11.09,-9.75,80.3,1.559,-2.11,-2.32,78.4,0.965,-3.29,-4.72,76.7,1.055,-6.24,-6.08,73.6,0.792,
-11.13,-9.76,80.3,1.559,-2.14,-2.33,78.4,0.963,-3.3,-4.71,76.7,1.056,-6.27,-6.09,73.6,0.792,
-11.1,-9.75,80.3,1.557,-2.11,-2.33,78.4,0.965,-3.3,-4.72,76.7,1.055,-6.25,-6.08,73.6,0.793,
-11.04,-9.7,80.3,1.56,-2.12,-2.32,78.4,0.965,-3.32,-4.72,76.6,1.054,-6.28,-6.09,73.5,0.791,
-11.01,-9.66,80.3,1.563,-2.14,-2.33,78.4,0.964,-3.35,-4.73,76.6,1.054,-6.28,-6.09,73.6,0.792,
-11.12,-9.73,80.3,1.556,-2.12,-2.32,78.4,0.966,-3.32,-4.72,76.6,1.054,-6.24,-6.06,73.5,0.793,
-11.1,-9.71,80.4,1.555,-2.11,-2.32,78.4,0.963,-3.33,-4.72,76.6,1.055,-6.26,-6.08,73.6,0.793,
-11.31,-9.84,80.4,1.571,-2.45,-2.56,78.5,0.948,-3.48,-4.82,76.6,1.053,-6.24,-6.08,73.7,0.794,
-11.34,-9.85,80.4,1.574,-2.43,-2.57,78.6,0.948,-3.46,-4.83,76.6,1.053,-6.24,-6.09,73.7,0.793,
-11.46,-9.87,80.4,1.583,-2.68,-2.71,78.6,0.951,-3.63,-4.95,76.6,1.046,-6.37,-6.19,73.8,0.787,
-11.69,-9.95,80.4,1.596,-3.22,-3.08,78.5,0.947,-3.84,-5.09,76.5,1.043,-6.43,-6.22,73.7,0.785,
-11.73,-9.97,80.5,1.599,-3.62,-3.36,78.5,0.945,-3.96,-5.2,76.5,1.042,-6.43,-6.23,73.7,0.784,
-11.77,-9.96,80.5,1.601,-3.88,-3.54,78.5,0.942,-4.07,-5.27,76.6,1.04,-6.46,-6.26,73.8,0.782,
-11.81,-9.96,80.5,1.6,-4,-3.61,78.5,0.943,-4.12,-5.29,76.6,1.039,-6.49,-6.27,73.8,0.782,
-11.81,-9.96,80.5,1.6,-4,-3.6,78.4,0.944,-4.1,-5.28,76.5,1.039,-6.46,-6.27,73.8,0.783,
-11.87,-9.97,80.5,1.6,-4.02,-3.6,78.5,0.945,-4.14,-5.27,76.5,1.036,-6.5,-6.29,73.8,0.781,
-11.89,-9.98,80.5,1.599,-4.02,-3.59,78.5,0.945,-4.15,-5.27,76.5,1.036,-6.49,-6.29,73.9,0.782,
-11.91,-9.99,80.5,1.599,-4.05,-3.62,78.5,0.946,-4.17,-5.28,76.5,1.035,-6.48,-6.3,74,0.782,
-11.98,-10.01,80.6,1.599,-4.14,-3.66,78.5,0.946,-4.22,-5.32,76.5,1.034,-6.52,-6.32,73.9,0.781,
-12,-10.02,80.6,1.598,-4.16,-3.69,78.4,0.946,-4.22,-5.35,76.7,1.034,-6.54,-6.34,73.9,0.779,
-12.06,-10.05,80.6,1.597,-4.18,-3.69,78.3,0.947,-4.22,-5.36,76.7,1.034,-6.56,-6.34,73.9,0.781,
-12.13,-10.07,80.6,1.595,-4.18,-3.68,78.3,0.948,-4.21,-5.36,76.8,1.034,-6.58,-6.36,74,0.779,
-12.14,-10.08,80.6,1.594,-4.19,-3.69,78.3,0.949,-4.19,-5.38,76.9,1.034,-6.57,-6.38,74,0.779,
-12.2,-10.1,80.6,1.594,-4.23,-3.72,78.3,0.948,-4.21,-5.41,77,1.035,-6.6,-6.39,74.1,0.779,
-12.23,-10.11,80.6,1.593,-4.28,-3.74,78.3,0.947,-4.21,-5.44,77.1,1.036,-6.62,-6.4,74,0.778,
-12.23,-10.13,80.6,1.592,-4.29,-3.74,78.2,0.948,-4.18,-5.46,77.2,1.036,-6.61,-6.39,74,0.779,
-12.28,-10.14,80.6,1.591,-4.32,-3.73,78.1,0.947,-4.18,-5.47,77.3,1.037,-6.63,-6.41,74.1,0.779,
-12.28,-10.15,80.6,1.59,-4.34,-3.73,78.1,0.948,-4.15,-5.49,77.4,1.038,-6.63,-6.43,74.1,0.777,
-12.27,-10.15,80.6,1.591,-4.35,-3.72,78.1,0.948,-4.12,-5.5,77.4,1.039,-6.62,-6.42,74.1,0.778,
-12.3,-10.17,80.7,1.591,-4.38,-3.72,77.9,0.949,-4.1,-5.51,77.5,1.041,-6.62,-6.44,74.1,0.777,
-12.3,-10.17,80.7,1.59,-4.4,-3.71,77.9,0.949,-4.05,-5.52,77.7,1.043,-6.6,-6.43,74.2,0.778,
-12.29,-10.18,80.7,1.592,-4.41,-3.71,77.8,0.95,-4.01,-5.53,77.8,1.044,-6.58,-6.43,74.3,0.779,
-12.31,-10.2,80.7,1.591,-4.44,-3.71,77.8,0.95,-3.99,-5.55,77.9,1.045,-6.59,-6.44,74.2,0.779,
-12.31,-10.19,80.7,1.591,-4.46,-3.71,77.7,0.95,-3.94,-5.57,78.1,1.047,-6.58,-6.44,74.2,0.778,
-12.32,-10.2,80.7,1.591,-4.48,-3.71,77.7,0.95,-3.88,-5.59,78.2,1.049,-6.56,-6.44,74.2,0.78,
-12.36,-10.22,80.7,1.591,-4.52,-3.71,77.6,0.95,-3.88,-5.61,78.3,1.05,-6.6,-6.45,74.2,0.778,
-12.37,-10.23,80.7,1.589,-4.55,-3.71,77.6,0.951,-3.85,-5.63,78.5,1.051,-6.6,-6.45,74.1,0.778,
-12.35,-10.23,80.7,1.59,-4.55,-3.71,77.5,0.95,-3.8,-5.63,78.6,1.053,-6.59,-6.44,74,0.779,
-12.37,-10.23,80.7,1.59,-4.58,-3.71,77.5,0.951,-3.81,-5.64,78.6,1.053,-6.6,-6.44,74,0.779,
-12.37,-10.23,80.7,1.59,-4.6,-3.71,77.5,0.951,-3.81,-5.65,78.6,1.053,-6.6,-6.44,74,0.778,
-12.34,-10.23,80.7,1.591,-4.59,-3.71,77.4,0.952,-3.79,-5.64,78.6,1.053,-6.56,-6.43,74,0.781,
-12.36,-10.24,80.8,1.59,-4.6,-3.7,77.3,0.952,-3.82,-5.63,78.5,1.051,-6.59,-6.43,73.9,0.778,
-12.37,-10.25,80.8,1.59,-4.6,-3.69,77.3,0.952,-3.84,-5.63,78.4,1.05,-6.58,-6.44,74,0.779,
-12.33,-10.25,80.7,1.591,-4.56,-3.69,77.4,0.954,-3.82,-5.62,78.3,1.05,-6.53,-6.43,74,0.78,
-12.34,-10.25,80.8,1.591,-4.55,-3.7,77.5,0.954,-3.84,-5.62,78.3,1.049,-6.55,-6.43,73.9,0.78,
-12.35,-10.26,80.8,1.59,-4.55,-3.72,77.5,0.954,-3.88,-5.62,78.2,1.047,-6.58,-6.44,73.9,0.779,
-12.3,-10.25,80.8,1.591,-4.49,-3.74,77.6,0.956,-3.87,-5.61,78.1,1.047,-6.51,-6.44,74,0.78,
-12.3,-10.25,80.8,1.592,-4.48,-3.76,77.8,0.957,-3.89,-5.61,78.1,1.045,-6.52,-6.44,74,0.78,
-12.32,-10.26,80.8,1.591,-4.48,-3.78,77.8,0.957,-3.93,-5.61,78,1.044,-6.55,-6.44,73.9,0.779,
-12.27,-10.25,80.8,1.592,-4.43,-3.8,78,0.958,-3.92,-5.6,78,1.043,-6.5,-6.43,73.9,0.781,
-12.28,-10.25,80.8,1.592,-4.43,-3.83,78,0.958,-3.95,-5.61,77.9,1.042,-6.5,-6.44,74,0.781,
-12.29,-10.26,80.8,1.592,-4.43,-3.85,78.1,0.958,-4.01,-5.6,77.7,1.04,-6.52,-6.44,73.9,0.781,
-12.27,-10.25,80.8,1.592,-4.4,-3.87,78.3,0.96,-4.02,-5.61,77.7,1.039,-6.5,-6.44,73.9,0.78,
-12.24,-10.25,80.8,1.592,-4.37,-3.88,78.3,0.961,-4.03,-5.6,77.7,1.038,-6.49,-6.45,73.9,0.78,
-12.25,-10.26,80.8,1.589,-4.34,-3.88,78.4,0.961,-4.06,-5.58,77.6,1.037,-6.5,-6.44,73.8,0.782,
-12.17,-10.23,80.8,1.588,-4.21,-3.83,78.5,0.959,-4.07,-5.56,77.4,1.036,-6.49,-6.44,73.9,0.782,
-12.07,-10.2,80.8,1.588,-3.98,-3.71,78.5,0.959,-3.99,-5.49,77.3,1.035,-6.45,-6.44,73.9,0.782,
-12,-10.17,80.8,1.587,-3.73,-3.57,78.7,0.958,-3.92,-5.4,77.3,1.034,-6.44,-6.42,74,0.784,
-11.94,-10.14,80.7,1.583,-3.54,-3.47,78.8,0.957,-3.89,-5.36,77.2,1.034,-6.44,-6.41,74,0.785,
-11.9,-10.16,80.8,1.586,-3.37,-3.42,78.9,0.961,-3.79,-5.32,77.3,1.035,-6.37,-6.38,73.9,0.785,
-11.9,-10.17,80.8,1.581,-3.08,-3.24,79,0.971,-3.72,-5.26,77.3,1.034,-6.34,-6.34,73.8,0.787,
-11.91,-10.17,80.8,1.586,-3.07,-3.27,79.1,0.961,-3.74,-5.29,77.3,1.036,-6.33,-6.34,73.9,0.788,
-11.82,-10.15,80.8,1.59,-3.08,-3.33,79.2,0.966,-3.7,-5.32,77.4,1.037,-6.26,-6.33,73.9,0.789,
-11.77,-10.13,80.8,1.585,-2.95,-3.25,79.2,0.974,-3.69,-5.31,77.4,1.037,-6.25,-6.32,73.8,0.789,
-11.66,-10.06,80.8,1.581,-2.7,-3.07,79.2,0.977,-3.63,-5.23,77.4,1.038,-6.22,-6.3,73.8,0.79,
-11.46,-9.94,80.8,1.572,-2.42,-2.9,79.3,0.981,-3.56,-5.19,77.4,1.04,-6.2,-6.31,73.9,0.79,
-11.49,-10,80.8,1.58,-2.38,-2.91,79.3,0.979,-3.57,-5.2,77.4,1.043,-6.18,-6.31,73.9,0.791,
-12.23,-10.49,80.8,1.625,-2.67,-3.14,79.3,0.981,-3.65,-5.28,77.4,1.041,-6.19,-6.31,73.8,0.79,
-12.88,-10.86,80.8,1.657,-3.05,-3.42,79.3,0.977,-3.76,-5.4,77.5,1.038,-6.25,-6.39,74,0.784,
-13.22,-11.05,80.9,1.667,-3.36,-3.65,79.4,0.977,-3.81,-5.47,77.5,1.038,-6.27,-6.39,73.8,0.783,
-13.51,-11.18,80.9,1.67,-3.48,-3.71,79.3,0.978,-3.85,-5.49,77.5,1.036,-6.31,-6.41,73.8,0.782,
-13.68,-11.25,80.9,1.67,-3.51,-3.72,79.3,0.978,-3.84,-5.48,77.6,1.036,-6.32,-6.42,73.9,0.781,
-13.75,-11.28,80.9,1.671,-3.53,-3.73,79.4,0.98,-3.81,-5.48,77.6,1.036,-6.28,-6.41,74,0.783,
-13.83,-11.31,80.9,1.669,-3.6,-3.76,79.3,0.98,-3.85,-5.49,77.5,1.036,-6.32,-6.42,73.9,0.781,
-13.91,-11.33,80.9,1.666,-3.65,-3.78,79.3,0.98,-3.9,-5.5,77.5,1.035,-6.36,-6.44,73.9,0.78,
-13.94,-11.36,80.9,1.666,-3.63,-3.77,79.3,0.982,-3.86,-5.49,77.5,1.035,-6.32,-6.42,73.9,0.782,
-14.03,-11.4,80.9,1.667,-3.65,-3.77,79.3,0.982,-3.86,-5.48,77.5,1.036,-6.33,-6.42,73.8,0.781,
-14.11,-11.43,80.9,1.666,-3.69,-3.79,79.3,0.983,-3.88,-5.49,77.5,1.036,-6.34,-6.42,73.9,0.782,
-14.09,-11.43,80.9,1.666,-3.67,-3.78,79.3,0.983,-3.84,-5.48,77.5,1.037,-6.29,-6.42,74,0.783,
-14.13,-11.44,80.9,1.664,-3.67,-3.77,79.3,0.984,-3.85,-5.47,77.4,1.036,-6.31,-6.41,73.8,0.783,
-14.19,-11.46,80.9,1.664,-3.69,-3.77,79.3,0.983,-3.88,-5.47,77.4,1.035,-6.33,-6.43,74,0.782,
-14.16,-11.45,80.9,1.663,-3.66,-3.76,79.3,0.985,-3.84,-5.46,77.5,1.036,-6.29,-6.42,74,0.784,
-14.19,-11.46,80.9,1.664,-3.67,-3.76,79.3,0.985,-3.84,-5.46,77.5,1.036,-6.3,-6.41,73.9,0.784,
-14.24,-11.47,80.9,1.663,-3.69,-3.76,79.3,0.986,-3.87,-5.46,77.5,1.036,-6.31,-6.42,74,0.783,
-14.26,-11.48,80.9,1.662,-3.7,-3.76,79.3,0.985,-3.87,-5.47,77.5,1.035,-6.32,-6.42,73.9,0.783,
-14.27,-11.49,80.9,1.664,-3.72,-3.79,79.4,0.987,-3.87,-5.47,77.4,1.036,-6.3,-6.41,73.8,0.784,
-14.3,-11.49,80.9,1.661,-3.78,-3.82,79.3,0.987,-3.91,-5.49,77.5,1.035,-6.34,-6.44,73.9,0.783,
-14.27,-11.46,80.9,1.656,-3.82,-3.83,79.4,0.986,-3.95,-5.5,77.4,1.034,-6.37,-6.44,73.9,0.783,
-14.18,-11.42,80.9,1.654,-3.76,-3.79,79.3,0.987,-3.91,-5.5,77.5,1.034,-6.33,-6.44,74,0.783,
-14.21,-11.43,80.9,1.655,-3.75,-3.77,79.4,0.988,-3.91,-5.48,77.5,1.033,-6.35,-6.44,73.9,0.783,
-14.22,-11.42,80.9,1.654,-3.75,-3.75,79.3,0.986,-3.94,-5.47,77.4,1.033,-6.37,-6.43,73.9,0.783,
-14.24,-11.44,80.9,1.654,-3.77,-3.77,79.4,0.989,-3.93,-5.48,77.5,1.033,-6.35,-6.44,73.9,0.783,
-14.25,-11.44,80.9,1.654,-3.77,-3.77,79.4,0.989,-3.93,-5.48,77.4,1.032,-6.34,-6.43,73.9,0.783,
-14.25,-11.45,80.9,1.655,-3.79,-3.77,79.3,0.988,-3.95,-5.48,77.4,1.032,-6.35,-6.43,73.9,0.784,
-14.27,-11.45,80.9,1.653,-3.8,-3.76,79.4,0.988,-3.96,-5.48,77.4,1.031,-6.36,-6.42,73.9,0.785,
-14.21,-11.43,80.9,1.654,-3.74,-3.74,79.4,0.99,-3.91,-5.47,77.5,1.032,-6.31,-6.43,74,0.784,
-14.23,-11.44,80.9,1.654,-3.74,-3.73,79.4,0.989,-3.93,-5.47,77.5,1.03,-6.34,-6.42,73.9,0.784,
-14.27,-11.45,80.9,1.653,-3.76,-3.73,79.3,0.989,-3.97,-5.47,77.4,1.03,-6.36,-6.43,73.9,0.784,
-14.22,-11.44,80.9,1.654,-3.73,-3.72,79.3,0.99,-3.93,-5.47,77.5,1.029,-6.33,-6.42,73.9,0.784,
-14.24,-11.44,80.9,1.654,-3.73,-3.72,79.3,0.991,-3.94,-5.47,77.4,1.029,-6.32,-6.42,73.9,0.785,
-14.28,-11.45,80.9,1.653,-3.76,-3.73,79.3,0.99,-3.97,-5.48,77.4,1.028,-6.36,-6.42,73.8,0.784,
-14.3,-11.46,81,1.654,-3.8,-3.75,79.3,0.989,-3.99,-5.48,77.3,1.028,-6.38,-6.42,73.7,0.783,
-14.27,-11.46,81,1.654,-3.77,-3.75,79.3,0.991,-3.97,-5.48,77.3,1.029,-6.35,-6.41,73.7,0.783,
-14.29,-11.47,81,1.653,-3.79,-3.75,79.3,0.99,-3.99,-5.49,77.4,1.027,-6.4,-6.41,73.5,0.781,
-14.33,-11.47,81,1.653,-3.82,-3.75,79.3,0.989,-4.03,-5.49,77.3,1.026,-6.42,-6.43,73.7,0.78,
-14.29,-11.46,81,1.652,-3.8,-3.74,79.3,0.99,-4,-5.49,77.3,1.027,-6.41,-6.42,73.6,0.779,
-14.28,-11.46,81,1.653,-3.79,-3.74,79.2,0.99,-4,-5.49,77.4,1.026,-6.41,-6.42,73.6,0.778,
-14.31,-11.47,81,1.653,-3.81,-3.74,79.2,0.989,-4.03,-5.5,77.3,1.025,-6.44,-6.43,73.5,0.777,
-14.32,-11.47,81,1.652,-3.82,-3.75,79.2,0.988,-4.04,-5.5,77.3,1.025,-6.45,-6.43,73.6,0.777,
-14.27,-11.46,81,1.653,-3.79,-3.74,79.3,0.99,-4,-5.5,77.3,1.026,-6.41,-6.42,73.5,0.779,
-14.29,-11.47,81,1.653,-3.8,-3.74,79.2,0.989,-4.03,-5.5,77.3,1.025,-6.43,-6.42,73.5,0.778,
-14.32,-11.48,81,1.653,-3.83,-3.75,79.2,0.989,-4.05,-5.5,77.3,1.025,-6.46,-6.42,73.5,0.778,
-14.29,-11.48,81.1,1.654,-3.82,-3.76,79.2,0.99,-4.01,-5.51,77.4,1.026,-6.42,-6.42,73.5,0.778,
-14.29,-11.48,81.1,1.655,-3.83,-3.78,79.2,0.989,-4.02,-5.51,77.4,1.026,-6.43,-6.42,73.5,0.777,
-14.31,-11.49,81.1,1.654,-3.85,-3.78,79.2,0.99,-4.04,-5.51,77.3,1.027,-6.44,-6.43,73.5,0.777,
-14.28,-11.48,81.1,1.653,-3.83,-3.76,79.2,0.989,-4.04,-5.51,77.3,1.025,-6.44,-6.43,73.5,0.777,
-14.26,-11.48,81.2,1.654,-3.81,-3.76,79.2,0.99,-4.01,-5.51,77.4,1.026,-6.42,-6.43,73.4,0.777,
-14.32,-11.51,81.1,1.655,-3.8,-3.75,79.2,0.989,-4.02,-5.5,77.3,1.025,-6.44,-6.43,73.4,0.777,
-14.35,-11.52,81.1,1.654,-3.83,-3.76,79.2,0.988,-4.05,-5.51,77.3,1.024,-6.45,-6.43,73.5,0.777,
-14.27,-11.5,81.2,1.655,-3.82,-3.77,79.2,0.99,-4.01,-5.51,77.4,1.025,-6.4,-6.44,73.5,0.777,
-14.28,-11.49,81.2,1.655,-3.83,-3.78,79.2,0.99,-4.01,-5.52,77.4,1.025,-6.4,-6.43,73.5,0.777,
-14.3,-11.51,81.2,1.655,-3.85,-3.78,79.2,0.989,-4.04,-5.52,77.4,1.025,-6.41,-6.44,73.6,0.778,
-14.27,-11.5,81.2,1.655,-3.84,-3.78,79.2,0.989,-4,-5.52,77.4,1.026,-6.38,-6.43,73.6,0.78,
-14.24,-11.5,81.3,1.657,-3.82,-3.77,79.2,0.99,-3.98,-5.51,77.4,1.027,-6.34,-6.42,73.6,0.783,
-14.25,-11.5,81.3,1.656,-3.82,-3.77,79.2,0.989,-3.98,-5.51,77.4,1.027,-6.29,-6.43,74,0.786,
-14.21,-11.5,81.3,1.656,-3.81,-3.77,79.2,0.99,-3.94,-5.51,77.6,1.028,-6.25,-6.44,74.1,0.787,
-14.17,-11.49,81.3,1.657,-3.77,-3.76,79.2,0.99,-3.91,-5.5,77.5,1.028,-6.2,-6.43,74.2,0.788,
-14.17,-11.49,81.3,1.658,-3.78,-3.76,79.2,0.99,-3.92,-5.5,77.5,1.029,-6.21,-6.42,74.1,0.789,
-14.17,-11.5,81.3,1.658,-3.78,-3.76,79.2,0.989,-3.91,-5.5,77.5,1.029,-6.21,-6.42,74.1,0.788,
-14.09,-11.49,81.3,1.659,-3.74,-3.76,79.2,0.99,-3.86,-5.49,77.6,1.03,-6.15,-6.42,74.2,0.789,
-14.11,-11.49,81.3,1.659,-3.74,-3.75,79.2,0.99,-3.87,-5.49,77.6,1.029,-6.16,-6.42,74.1,0.79,
-14.14,-11.5,81.3,1.659,-3.77,-3.76,79.2,0.99,-3.9,-5.49,77.5,1.029,-6.19,-6.42,74.1,0.789,
-14.09,-11.5,81.3,1.659,-3.74,-3.75,79.2,0.99,-3.86,-5.49,77.6,1.03,-6.14,-6.43,74.3,0.79,
-14.07,-11.49,81.3,1.659,-3.73,-3.75,79.2,0.991,-3.86,-5.49,77.5,1.029,-6.14,-6.42,74.2,0.79,
-14.08,-11.49,81.3,1.658,-3.74,-3.75,79.2,0.989,-3.87,-5.5,77.6,1.029,-6.16,-6.43,74.2,0.79,
-14.05,-11.48,81.4,1.658,-3.74,-3.75,79.2,0.989,-3.88,-5.5,77.5,1.028,-6.16,-6.42,74.2,0.79,
-14.01,-11.47,81.3,1.659,-3.72,-3.75,79.2,0.989,-3.84,-5.49,77.5,1.029,-6.13,-6.42,74.2,0.79,
-14.01,-11.48,81.4,1.659,-3.72,-3.74,79.2,0.989,-3.86,-5.49,77.5,1.029,-6.14,-6.43,74.3,0.79,
-14.02,-11.48,81.3,1.659,-3.71,-3.73,79.1,0.988,-3.86,-5.48,77.5,1.028,-6.14,-6.42,74.3,0.791,
-13.95,-11.47,81.4,1.66,-3.65,-3.71,79.2,0.99,-3.79,-5.47,77.6,1.03,-6.07,-6.4,74.2,0.793,
-13.97,-11.49,81.4,1.662,-3.65,-3.71,79.2,0.99,-3.79,-5.46,77.5,1.03,-6.07,-6.41,74.3,0.792,
-14.01,-11.5,81.3,1.663,-3.67,-3.72,79.1,0.989,-3.79,-5.46,77.5,1.03,-6.09,-6.4,74.2,0.792,
-13.95,-11.49,81.4,1.663,-3.64,-3.71,79.1,0.989,-3.74,-5.46,77.6,1.031,-6.04,-6.4,74.3,0.793,
-13.93,-11.48,81.4,1.665,-3.63,-3.71,79.1,0.989,-3.74,-5.45,77.5,1.031,-6.04,-6.4,74.2,0.791,
-13.96,-11.49,81.3,1.666,-3.66,-3.72,79.1,0.988,-3.76,-5.45,77.5,1.03,-6.09,-6.39,74,0.79,
-13.97,-11.51,81.3,1.665,-3.67,-3.74,79.1,0.989,-3.76,-5.46,77.6,1.03,-6.11,-6.39,73.9,0.788,
-13.95,-11.51,81.3,1.666,-3.67,-3.75,79.1,0.99,-3.73,-5.45,77.5,1.032,-6.07,-6.4,74,0.788,
-13.97,-11.51,81.3,1.667,-3.69,-3.75,79,0.989,-3.74,-5.46,77.5,1.032,-6.09,-6.4,74,0.789,
-14,-11.52,81.3,1.665,-3.72,-3.76,79.1,0.989,-3.78,-5.46,77.5,1.031,-6.13,-6.4,73.9,0.787,
-13.95,-11.51,81.3,1.665,-3.69,-3.76,79.1,0.989,-3.72,-5.45,77.5,1.033,-6.07,-6.41,74,0.788,
-13.96,-11.51,81.3,1.666,-3.7,-3.76,79.1,0.989,-3.73,-5.45,77.5,1.033,-6.08,-6.4,74,0.789,
-13.99,-11.52,81.3,1.665,-3.73,-3.77,79,0.988,-3.76,-5.46,77.5,1.032,-6.12,-6.4,73.9,0.787,
-13.94,-11.52,81.3,1.665,-3.7,-3.77,79.1,0.988,-3.71,-5.44,77.5,1.034,-6.08,-6.41,74,0.788,
-13.93,-11.52,81.3,1.666,-3.69,-3.76,79.1,0.988,-3.69,-5.44,77.6,1.033,-6.06,-6.39,74,0.789,
-13.94,-11.52,81.3,1.665,-3.69,-3.76,79.1,0.988,-3.71,-5.43,77.5,1.033,-6.07,-6.41,74.1,0.788,
-13.92,-11.51,81.3,1.665,-3.67,-3.75,79.1,0.988,-3.69,-5.42,77.5,1.034,-6.05,-6.4,74.1,0.788,
-13.87,-11.51,81.3,1.666,-3.64,-3.75,79,0.989,-3.64,-5.42,77.6,1.035,-6.02,-6.38,74,0.789,
-13.89,-11.5,81.2,1.666,-3.66,-3.75,79,0.988,-3.66,-5.41,77.5,1.034,-6.03,-6.39,74.1,0.789,
-13.89,-11.5,81.2,1.666,-3.66,-3.75,79,0.987,-3.67,-5.41,77.5,1.034,-6.05,-6.39,74.1,0.788,
-13.84,-11.5,81.3,1.667,-3.62,-3.75,79,0.988,-3.62,-5.41,77.6,1.035,-6.01,-6.38,74,0.789,
-13.82,-11.48,81.2,1.662,-3.58,-3.7,79,0.987,-3.61,-5.39,77.5,1.035,-6.02,-6.39,74.1,0.788,
-12.95,-10.94,81.1,1.599,-2.95,-3.21,78.9,0.983,-3.48,-5.21,77.4,1.039,-6.04,-6.37,73.9,0.791,
-12.48,-10.71,81.1,1.574,-2.7,-3.06,78.9,0.982,-3.4,-5.14,77.4,1.041,-5.99,-6.33,73.9,0.794,
-12.35,-10.67,81.2,1.564,-2.63,-3.02,78.8,0.98,-3.4,-5.14,77.4,1.04,-6.01,-6.34,73.9,0.793,
-12.15,-10.57,81.3,1.577,-2.63,-3,78.8,0.968,-3.36,-5.1,77.3,1.036,-6.03,-6.33,73.9,0.791,
-12,-10.5,81.4,1.584,-2.62,-2.99,78.8,0.958,-3.3,-5.05,77.3,1.037,-6,-6.29,73.8,0.793,
-11.75,-10.4,81.5,1.586,-2.57,-2.98,78.8,0.954,-3.26,-5.05,77.3,1.039,-5.98,-6.3,73.9,0.792,
-11.65,-10.33,81.4,1.59,-2.57,-2.98,78.8,0.952,-3.35,-5.08,77.3,1.04,-6.02,-6.31,73.8,0.791,
-11.57,-10.3,81.4,1.589,-2.57,-2.98,78.8,0.948,-3.36,-5.09,77.3,1.04,-6.04,-6.31,73.9,0.792,
-11.45,-10.24,81.4,1.595,-2.54,-2.98,78.8,0.949,-3.33,-5.08,77.3,1.044,-6.02,-6.31,73.8,0.794,
-11.38,-10.21,81.3,1.594,-2.51,-2.97,78.9,0.949,-3.38,-5.11,77.3,1.044,-6.03,-6.32,73.8,0.795,
-11.33,-10.19,81.3,1.599,-2.52,-2.98,78.9,0.944,-3.35,-5.09,77.3,1.046,-6.06,-6.33,73.8,0.794,
-11.25,-10.17,81.3,1.595,-2.47,-2.97,78.9,0.944,-3.27,-5.04,77.3,1.049,-6.04,-6.31,73.8,0.797,
-11.18,-10.16,81.4,1.592,-2.42,-2.94,78.9,0.944,-3.25,-5.03,77.3,1.049,-6.03,-6.31,73.8,0.797,
-11.12,-10.12,81.4,1.589,-2.38,-2.91,78.9,0.943,-3.21,-4.99,77.3,1.049,-6.07,-6.28,73.6,0.798,
-11.01,-10.09,81.4,1.583,-2.32,-2.89,79,0.945,-3.2,-4.99,77.3,1.048,-6.07,-6.3,73.8,0.797,
-11.08,-10.16,81.5,1.583,-2.32,-2.9,79,0.942,-3.19,-4.97,77.3,1.049,-6.1,-6.31,73.8,0.796,
-11.22,-10.19,81.4,1.584,-2.44,-2.96,78.9,0.937,-3.27,-5,77.3,1.049,-6.22,-6.36,73.8,0.794,
-11.21,-10.2,81.4,1.58,-2.44,-2.96,79,0.937,-3.26,-5,77.3,1.048,-6.25,-6.39,73.8,0.793,
-11.14,-10.18,81.4,1.574,-2.37,-2.92,78.9,0.94,-3.19,-4.97,77.3,1.049,-6.22,-6.38,73.8,0.795,
-11.14,-10.2,81.4,1.569,-2.38,-2.92,78.9,0.938,-3.2,-4.94,77.3,1.048,-6.24,-6.38,73.8,0.795,
-11.19,-10.26,81.3,1.565,-2.54,-3.04,78.9,0.933,-3.38,-5.1,77.3,1.048,-6.29,-6.44,73.9,0.791,
-11.12,-10.23,81.2,1.564,-2.69,-3.14,79,0.927,-3.59,-5.27,77.3,1.045,-6.31,-6.47,73.9,0.787,
-11.08,-10.21,81.2,1.562,-2.71,-3.13,78.9,0.927,-3.58,-5.22,77.2,1.044,-6.27,-6.43,73.9,0.788,
-10.98,-10.15,81.1,1.561,-2.77,-3.17,78.9,0.926,-3.68,-5.3,77.2,1.044,-6.27,-6.45,73.9,0.786,
-10.87,-10.1,81.1,1.562,-2.81,-3.21,78.8,0.923,-3.74,-5.34,77.2,1.046,-6.24,-6.45,73.9,0.786,
-10.85,-10.05,81.1,1.559,-2.85,-3.23,78.7,0.922,-3.79,-5.34,77.1,1.045,-6.26,-6.44,73.8,0.786,
-10.78,-10,81.1,1.558,-2.88,-3.24,78.7,0.92,-3.84,-5.38,77.2,1.045,-6.29,-6.45,73.7,0.783,
-10.67,-9.94,81.1,1.559,-2.87,-3.25,78.7,0.92,-3.85,-5.39,77.2,1.047,-6.26,-6.45,73.7,0.784,
-10.63,-9.89,81.1,1.558,-2.89,-3.25,78.7,0.918,-3.92,-5.4,77.1,1.045,-6.29,-6.45,73.8,0.782,
-10.7,-9.9,81,1.555,-2.9,-3.24,78.6,0.918,-3.94,-5.39,77.1,1.043,-6.34,-6.45,73.5,0.781,
-10.74,-9.9,81,1.561,-2.88,-3.22,78.6,0.92,-3.92,-5.4,77.1,1.041,-6.38,-6.47,73.5,0.779,
-10.83,-9.92,81,1.568,-2.9,-3.18,78.6,0.917,-3.91,-5.37,77.2,1.037,-6.49,-6.53,73.6,0.775,
-10.82,-9.91,81,1.565,-2.81,-3.13,78.6,0.917,-3.8,-5.28,77.2,1.037,-6.47,-6.47,73.4,0.78,
-10.66,-9.85,81,1.548,-2.49,-2.94,78.7,0.931,-3.65,-5.21,77.3,1.04,-6.39,-6.43,73.4,0.785,
-10.69,-9.86,81,1.532,-2.32,-2.85,78.7,0.937,-3.66,-5.22,77.3,1.043,-6.38,-6.45,73.5,0.787,
-10.65,-9.79,81,1.511,-2.22,-2.82,78.8,0.939,-3.78,-5.32,77.3,1.046,-6.54,-6.56,73.5,0.786,
-10.42,-9.61,81,1.472,-2.04,-2.78,78.8,0.954,-3.93,-5.48,77.4,1.054,-6.8,-6.76,73.6,0.792,
-10.37,-9.54,81,1.45,-2.01,-2.79,78.9,0.958,-4.06,-5.58,77.5,1.058,-6.95,-6.82,73.4,0.804,
-10.43,-9.55,81,1.45,-2.02,-2.8,79,0.955,-4.05,-5.57,77.5,1.057,-6.94,-6.82,73.5,0.804,
-10.8,-9.82,81,1.475,-2.03,-2.85,79,0.952,-4.04,-5.6,77.7,1.056,-6.89,-6.78,73.5,0.801,
-11.26,-10.14,81,1.495,-2.07,-2.9,79,0.948,-4.07,-5.65,77.7,1.055,-6.88,-6.8,73.5,0.798,
-11.62,-10.34,81,1.504,-2.11,-2.93,79.1,0.946,-4.1,-5.68,77.7,1.054,-6.9,-6.79,73.5,0.797,
-11.76,-10.42,81,1.505,-2.13,-2.94,79,0.945,-4.11,-5.7,77.8,1.052,-6.89,-6.77,73.5,0.798,
-11.79,-10.46,81,1.506,-2.09,-2.94,79.1,0.945,-4.08,-5.73,77.9,1.052,-6.84,-6.77,73.5,0.798,
-11.89,-10.5,81,1.506,-2.09,-2.95,79.1,0.944,-4.11,-5.74,78,1.051,-6.87,-6.78,73.5,0.797,
-11.89,-10.5,81,1.502,-2.08,-2.95,79.2,0.945,-4.12,-5.78,78.1,1.051,-6.92,-6.79,73.4,0.796,
-11.87,-10.5,81,1.503,-2.04,-2.95,79.2,0.944,-4.07,-5.79,78.2,1.051,-6.81,-6.78,73.7,0.801,
-11.85,-10.5,81.1,1.501,-2.03,-2.94,79.2,0.945,-4.08,-5.82,78.2,1.05,-6.81,-6.78,73.7,0.801,
-11.89,-10.51,81.1,1.502,-2.02,-2.94,79.2,0.944,-4.09,-5.82,78.2,1.05,-6.78,-6.76,73.8,0.805,
-11.88,-10.53,81.1,1.505,-1.98,-2.94,79.2,0.944,-4.03,-5.81,78.3,1.051,-6.67,-6.75,74.1,0.808,
-11.96,-10.57,81.1,1.504,-1.98,-2.94,79.3,0.944,-4.02,-5.81,78.3,1.053,-6.67,-6.76,74.2,0.809,
-12.04,-10.59,81.1,1.5,-2,-2.95,79.3,0.944,-4.04,-5.81,78.3,1.055,-6.68,-6.79,74.3,0.809,
-12.07,-10.62,81.1,1.498,-1.97,-2.96,79.3,0.944,-3.98,-5.8,78.3,1.057,-6.65,-6.78,74.2,0.811,
-12.16,-10.66,81.1,1.496,-1.99,-2.96,79.3,0.943,-3.97,-5.78,78.3,1.059,-6.64,-6.77,74.2,0.811,
-12.22,-10.68,81.1,1.496,-2,-2.96,79.3,0.943,-3.98,-5.76,78.2,1.06,-6.67,-6.77,74.2,0.809,
-12.2,-10.69,81.1,1.496,-1.95,-2.95,79.3,0.946,-3.93,-5.74,78.2,1.063,-6.6,-6.77,74.4,0.811,
-12.28,-10.72,81.1,1.496,-1.94,-2.94,79.3,0.947,-3.91,-5.73,78.2,1.065,-6.61,-6.75,74.2,0.812,
-12.35,-10.75,81.1,1.495,-1.96,-2.94,79.3,0.946,-3.92,-5.71,78.2,1.066,-6.61,-6.75,74.3,0.812,
-12.35,-10.76,81.1,1.494,-1.94,-2.93,79.3,0.948,-3.9,-5.7,78.2,1.067,-6.6,-6.76,74.3,0.811,
-12.35,-10.77,81.1,1.495,-1.9,-2.92,79.3,0.95,-3.88,-5.67,78.1,1.07,-6.57,-6.74,74.3,0.812,
-12.38,-10.78,81.1,1.495,-1.89,-2.91,79.3,0.951,-3.88,-5.66,78.1,1.07,-6.57,-6.71,74.2,0.813,
-12.4,-10.8,81.1,1.497,-1.86,-2.9,79.3,0.952,-3.85,-5.64,78.1,1.073,-6.53,-6.73,74.5,0.814,
-12.42,-10.82,81.1,1.499,-1.84,-2.88,79.3,0.953,-3.81,-5.61,78,1.075,-6.54,-6.7,74.1,0.814,
-12.44,-10.82,81.1,1.497,-1.82,-2.87,79.3,0.955,-3.81,-5.61,78.1,1.076,-6.52,-6.74,74.5,0.814,
-12.43,-10.81,81.1,1.492,-1.78,-2.85,79.3,0.959,-3.8,-5.6,78,1.079,-6.55,-6.76,74.4,0.813,
-11.95,-10.49,81.1,1.463,-1.68,-2.77,79.3,0.962,-3.68,-5.53,78,1.084,-6.48,-6.72,74.4,0.818,
-11.52,-10.19,81,1.44,-1.65,-2.72,79.2,0.962,-3.64,-5.46,78,1.085,-6.47,-6.71,74.4,0.818,
-11.3,-10.07,81.1,1.437,-1.61,-2.69,79.2,0.964,-3.59,-5.43,77.9,1.088,-6.46,-6.7,74.4,0.816,
-11.13,-10,81.1,1.436,-1.54,-2.67,79.2,0.966,-3.55,-5.41,78,1.089,-6.4,-6.69,74.5,0.818,
-11.05,-9.96,81.1,1.436,-1.52,-2.65,79.2,0.966,-3.54,-5.39,77.9,1.09,-6.44,-6.66,74.2,0.816,
-10.97,-9.92,81.1,1.435,-1.49,-2.63,79.2,0.968,-3.53,-5.38,77.9,1.091,-6.45,-6.67,74.2,0.814,
-10.85,-9.88,81.1,1.437,-1.42,-2.61,79.2,0.97,-3.47,-5.37,77.9,1.092,-6.39,-6.67,74.3,0.814,
-10.83,-9.9,81.1,1.444,-1.4,-2.61,79.3,0.971,-3.47,-5.37,77.9,1.092,-6.39,-6.67,74.3,0.814,
-10.92,-9.97,81.1,1.451,-1.4,-2.61,79.2,0.971,-3.46,-5.38,78,1.092,-6.42,-6.64,74,0.813,
-11.01,-10.07,81.2,1.464,-1.36,-2.62,79.3,0.971,-3.43,-5.37,78,1.092,-6.33,-6.64,74.2,0.817,
-11.17,-10.17,81.2,1.47,-1.38,-2.63,79.2,0.969,-3.44,-5.38,77.9,1.091,-6.34,-6.65,74.3,0.816,
-11.28,-10.23,81.2,1.472,-1.42,-2.64,79.2,0.967,-3.46,-5.4,78,1.091,-6.4,-6.65,74.1,0.814,
-11.29,-10.28,81.2,1.476,-1.37,-2.65,79.3,0.968,-3.41,-5.4,78,1.093,-6.33,-6.65,74.3,0.816,
-11.38,-10.33,81.2,1.478,-1.39,-2.67,79.3,0.966,-3.42,-5.4,78,1.091,-6.35,-6.65,74.2,0.815,
-11.45,-10.36,81.2,1.479,-1.43,-2.67,79.2,0.964,-3.45,-5.4,78,1.091,-6.35,-6.66,74.2,0.816,
-11.46,-10.39,81.2,1.481,-1.42,-2.68,79.2,0.964,-3.44,-5.41,78,1.091,-6.36,-6.66,74.2,0.815,
-11.49,-10.42,81.2,1.483,-1.41,-2.68,79.2,0.964,-3.42,-5.42,78,1.091,-6.35,-6.67,74.2,0.813,
-11.54,-10.43,81.2,1.483,-1.44,-2.69,79.2,0.962,-3.45,-5.41,78,1.09,-6.36,-6.67,74.2,0.815,
-11.58,-10.45,81.2,1.483,-1.46,-2.69,79.2,0.961,-3.46,-5.42,78,1.09,-6.38,-6.66,74.2,0.814,
-11.56,-10.47,81.3,1.485,-1.44,-2.69,79.2,0.962,-3.43,-5.42,78,1.09,-6.34,-6.67,74.3,0.813,
-11.61,-10.49,81.3,1.486,-1.47,-2.7,79.2,0.961,-3.45,-5.42,78,1.09,-6.38,-6.67,74.2,0.813,
-11.65,-10.51,81.3,1.486,-1.5,-2.7,79.1,0.96,-3.49,-5.42,77.9,1.09,-6.4,-6.66,74.2,0.814,
-11.61,-10.5,81.3,1.488,-1.47,-2.7,79.2,0.959,-3.45,-5.42,78,1.09,-6.37,-6.66,74.2,0.813,
-11.63,-10.51,81.3,1.489,-1.47,-2.7,79.2,0.96,-3.45,-5.42,78,1.09,-6.36,-6.65,74.2,0.815,
-11.69,-10.54,81.3,1.49,-1.5,-2.71,79.1,0.958,-3.48,-5.42,77.9,1.089,-6.38,-6.65,74.1,0.814,
-11.7,-10.54,81.3,1.49,-1.51,-2.72,79.2,0.958,-3.47,-5.42,78,1.089,-6.38,-6.66,74.3,0.814,
-11.66,-10.53,81.3,1.492,-1.48,-2.72,79.2,0.958,-3.44,-5.41,78,1.089,-6.32,-6.63,74.3,0.816,
-11.69,-10.55,81.3,1.494,-1.52,-2.72,79.1,0.956,-3.46,-5.4,77.9,1.088,-6.34,-6.62,74.2,0.816,
-11.75,-10.57,81.3,1.495,-1.55,-2.73,79.1,0.955,-3.47,-5.4,78,1.087,-6.35,-6.62,74.3,0.816,
-11.69,-10.57,81.3,1.499,-1.53,-2.73,79,0.955,-3.43,-5.39,78,1.086,-6.3,-6.59,74.2,0.818,
-11.76,-10.6,81.3,1.505,-1.56,-2.74,79,0.952,-3.41,-5.35,77.9,1.085,-6.28,-6.56,74.2,0.818,
-11.81,-10.61,81.2,1.511,-1.6,-2.75,79,0.95,-3.41,-5.33,77.9,1.083,-6.24,-6.53,74.3,0.821,
-11.75,-10.6,81.3,1.512,-1.58,-2.74,79,0.952,-3.39,-5.33,78,1.083,-6.23,-6.51,74.2,0.821,
-11.29,-10.29,81.2,1.487,-1.51,-2.68,79,0.952,-3.35,-5.31,78,1.083,-6.21,-6.53,74.3,0.82,
-10.97,-10.05,81.2,1.487,-1.51,-2.62,78.9,0.95,-3.23,-5.17,77.9,1.083,-6.16,-6.42,74,0.824,
-11.08,-10.11,81.1,1.522,-1.64,-2.63,78.7,0.944,-2.99,-4.99,78,1.077,-6.17,-6.43,74.1,0.799,
-11.11,-10.21,81.2,1.542,-1.69,-2.65,78.7,0.939,-2.78,-4.9,78,1.074,-6.09,-6.41,74.2,0.789,
-11.04,-10.15,81.2,1.547,-1.7,-2.62,78.7,0.942,-2.79,-4.91,78,1.077,-6.14,-6.42,74.1,0.789,
-10.82,-9.98,81.2,1.554,-1.7,-2.6,78.7,0.938,-2.79,-4.92,78,1.076,-6.15,-6.4,73.9,0.789,
-10.65,-9.88,81.2,1.556,-1.66,-2.58,78.7,0.934,-2.63,-4.83,78,1.076,-6.04,-6.39,74.1,0.793,
-10.56,-9.84,81.3,1.559,-1.71,-2.63,78.7,0.925,-2.57,-4.8,78,1.077,-5.94,-6.34,74.3,0.797,
-10.25,-9.71,81.4,1.531,-1.52,-2.53,78.8,0.933,-2.73,-4.9,77.9,1.074,-6,-6.34,74,0.8,
-10.26,-9.9,81.6,1.49,-1.49,-2.68,79.2,0.932,-3.12,-5.23,77.9,1.06,-6.23,-6.57,74.3,0.797,
-10.59,-10.14,81.6,1.506,-1.58,-2.75,79.1,0.923,-2.89,-5.09,77.9,1.064,-6.03,-6.43,74.3,0.803,
-10.57,-10.13,81.6,1.508,-1.57,-2.75,79.2,0.919,-2.9,-5.09,77.9,1.065,-6.1,-6.47,74.2,0.795,
-10.69,-10.26,81.7,1.503,-1.59,-2.82,79.3,0.915,-3.03,-5.18,77.9,1.061,-6.17,-6.51,74.2,0.794,
-10.64,-10.21,81.6,1.505,-1.56,-2.76,79.2,0.922,-2.86,-5.07,77.9,1.064,-6.05,-6.44,74.1,0.8,
-10.49,-10.08,81.6,1.507,-1.53,-2.69,79,0.925,-2.87,-5.05,77.8,1.064,-6.03,-6.43,74.2,0.802,
-10.37,-9.91,81.4,1.52,-1.47,-2.58,78.8,0.932,-2.86,-5.04,77.9,1.069,-5.97,-6.37,74,0.805,
-10.24,-9.82,81.4,1.528,-1.4,-2.53,78.8,0.938,-2.83,-5.02,77.9,1.072,-5.85,-6.33,74.2,0.812,
-10.23,-9.8,81.4,1.528,-1.44,-2.53,78.8,0.937,-2.76,-4.96,77.9,1.071,-5.86,-6.26,73.8,0.809,
-10.17,-9.76,81.4,1.528,-1.42,-2.51,78.8,0.939,-2.79,-4.95,77.9,1.071,-5.83,-6.26,74,0.812,
-10.08,-9.73,81.4,1.53,-1.37,-2.5,78.7,0.94,-2.75,-4.94,77.8,1.072,-5.8,-6.23,73.9,0.814,
-9.98,-9.7,81.5,1.526,-1.34,-2.49,78.8,0.939,-2.78,-4.98,77.9,1.07,-5.84,-6.27,73.9,0.811,
-9.91,-9.78,81.7,1.488,-1.45,-2.72,79.2,0.932,-3.16,-5.3,77.9,1.055,-6.15,-6.53,74,0.801,
-10.26,-10.12,81.8,1.485,-1.79,-3.05,79.6,0.923,-3.5,-5.6,77.9,1.039,-6.43,-6.74,74.1,0.79,
-10.57,-10.34,81.8,1.491,-2.07,-3.24,79.7,0.939,-3.77,-5.82,78,1.041,-6.54,-6.85,74.2,0.786,
-10.8,-10.47,81.7,1.503,-2.26,-3.33,79.6,0.948,-3.84,-5.86,78.1,1.047,-6.53,-6.81,74,0.782,
-11.04,-10.61,81.7,1.515,-2.24,-3.31,79.5,0.95,-3.8,-5.81,78,1.049,-6.48,-6.74,73.8,0.783,
-11.25,-10.73,81.7,1.525,-2.21,-3.27,79.5,0.949,-3.86,-5.77,78,1.051,-6.42,-6.74,73.9,0.781,
-11.42,-10.8,81.7,1.53,-2.18,-3.22,79.4,0.945,-3.86,-5.71,78,1.052,-6.44,-6.73,73.9,0.779,
-11.46,-10.77,81.8,1.528,-2.25,-3.19,79.3,0.942,-3.95,-5.71,78,1.051,-6.47,-6.77,74,0.778,
-11.38,-10.64,81.6,1.526,-2.26,-3.12,79.2,0.942,-3.92,-5.65,78,1.052,-6.43,-6.8,74.1,0.777,
-11.24,-10.38,81.5,1.528,-2.23,-3,79.1,0.944,-3.88,-5.59,77.9,1.052,-6.49,-6.82,74,0.776,
-10.98,-10.04,81.3,1.524,-2.15,-2.88,78.8,0.951,-3.93,-5.61,77.8,1.056,-6.69,-6.96,74.1,0.773,
-10.78,-9.79,81.2,1.501,-2.06,-2.85,78.9,0.957,-4.06,-5.73,77.9,1.059,-7.01,-7.19,74,0.762,
-10.81,-9.67,81.2,1.488,-2.15,-2.91,78.9,0.961,-4.46,-5.99,78,1.061,-7.4,-7.47,73.9,0.753,
-10.85,-9.56,81.2,1.475,-2.33,-2.97,79,0.96,-4.71,-6.12,78.1,1.064,-7.6,-7.67,74.1,0.748,
-11.02,-9.5,81.1,1.444,-2.8,-3.21,79.2,0.967,-4.77,-6.08,78.2,1.067,-7.57,-7.78,74.5,0.747,
-11.4,-9.56,81,1.405,-3.25,-3.47,79.3,0.973,-4.51,-5.86,78.3,1.069,-7.34,-7.73,74.7,0.749,
-11.69,-9.63,81,1.397,-3.53,-3.61,79.3,0.974,-4.44,-5.77,78.3,1.072,-7.26,-7.66,74.6,0.752,
-11.85,-9.7,81,1.388,-3.83,-3.79,79.3,0.978,-4.53,-5.8,78.4,1.078,-7.3,-7.74,74.9,0.752,
-11.83,-9.71,81,1.39,-3.86,-3.83,79.4,0.978,-4.55,-5.82,78.4,1.081,-7.23,-7.72,74.9,0.756,
-11.71,-9.65,81.2,1.389,-3.91,-3.86,79.4,0.977,-4.64,-5.85,78.3,1.079,-7.2,-7.69,74.8,0.76,
-11.62,-9.57,81.2,1.373,-3.98,-3.91,79.5,0.979,-4.69,-5.84,78.4,1.079,-7.18,-7.71,74.9,0.759,
-12.03,-9.82,81,1.333,-4.11,-4.04,79.6,0.98,-4.63,-5.81,78.5,1.079,-6.98,-7.68,75,0.751,
-11.95,-9.79,81,1.349,-4.08,-4.04,79.5,0.981,-4.69,-5.81,78.5,1.078,-6.9,-7.67,75.2,0.755,
-11.35,-9.43,81.1,1.386,-3.79,-3.83,79.4,0.983,-4.65,-5.81,78.5,1.078,-6.97,-7.66,75,0.755,
-11.25,-9.4,81.1,1.396,-3.71,-3.79,79.3,0.987,-4.58,-5.81,78.5,1.081,-6.92,-7.67,75.3,0.76,
-11.2,-9.38,81.2,1.399,-3.72,-3.8,79.3,0.987,-4.52,-5.79,78.5,1.084,-6.92,-7.65,75.1,0.761,
-11.23,-9.38,81.1,1.399,-3.73,-3.8,79.3,0.989,-4.45,-5.74,78.5,1.087,-6.88,-7.62,75.2,0.76,
-11.24,-9.41,81.2,1.404,-3.76,-3.83,79.3,0.991,-4.44,-5.76,78.5,1.087,-6.86,-7.63,75.2,0.762,
-11.15,-9.37,81.2,1.406,-3.71,-3.81,79.3,0.992,-4.36,-5.73,78.5,1.087,-6.78,-7.62,75.4,0.762,
-11.21,-9.42,81.2,1.408,-3.8,-3.87,79.3,0.992,-4.44,-5.79,78.6,1.087,-6.88,-7.65,75.2,0.761,
-11.13,-9.37,81.2,1.409,-3.73,-3.83,79.3,0.993,-4.38,-5.77,78.6,1.087,-6.8,-7.57,75.1,0.768,
-11.05,-9.34,81.2,1.411,-3.67,-3.82,79.3,0.994,-4.33,-5.76,78.6,1.089,-6.71,-7.58,75.3,0.77,
-11.02,-9.32,81.2,1.411,-3.69,-3.82,79.3,0.994,-4.31,-5.74,78.7,1.089,-6.7,-7.56,75.2,0.769,
-11.02,-9.3,81.2,1.407,-3.7,-3.83,79.3,0.995,-4.31,-5.75,78.7,1.09,-6.68,-7.54,75.2,0.771,
-11.01,-9.32,81.3,1.402,-3.69,-3.85,79.4,0.996,-4.26,-5.73,78.7,1.094,-6.59,-7.52,75.3,0.775,
-11.09,-9.34,81.3,1.393,-3.71,-3.87,79.4,0.996,-4.23,-5.71,78.7,1.096,-6.51,-7.46,75.3,0.78,
-11.12,-9.37,81.3,1.396,-3.74,-3.89,79.4,0.995,-4.24,-5.72,78.7,1.097,-6.5,-7.44,75.2,0.782,
-11.06,-9.37,81.4,1.397,-3.71,-3.91,79.5,0.996,-4.18,-5.72,78.8,1.101,-6.47,-7.41,75.1,0.783,
-11.16,-9.43,81.4,1.383,-3.79,-3.96,79.5,0.995,-4.17,-5.71,78.8,1.103,-6.38,-7.4,75.4,0.788,
-11.34,-9.54,81.4,1.377,-3.89,-4.03,79.5,0.992,-4.16,-5.72,78.8,1.104,-6.38,-7.33,75.1,0.79,
-11.35,-9.56,81.4,1.373,-3.92,-4.07,79.6,0.991,-4.12,-5.72,78.9,1.105,-6.32,-7.32,75.2,0.791,
-11.38,-9.59,81.4,1.371,-3.94,-4.1,79.6,0.991,-4.08,-5.72,78.9,1.108,-6.25,-7.33,75.4,0.792,
-11.48,-9.65,81.3,1.369,-3.97,-4.12,79.6,0.989,-4.08,-5.74,78.9,1.108,-6.26,-7.3,75.4,0.792,
-11.42,-9.62,81.3,1.369,-3.99,-4.15,79.7,0.989,-4.11,-5.77,79,1.107,-6.27,-7.32,75.4,0.79,
-11.38,-9.64,81.4,1.372,-3.96,-4.16,79.7,0.99,-4.07,-5.77,79,1.109,-6.25,-7.29,75.3,0.79,
-11.34,-9.63,81.4,1.373,-3.94,-4.16,79.7,0.988,-4.04,-5.78,79,1.108,-6.2,-7.25,75.3,0.794,
-11.37,-9.62,81.4,1.37,-3.97,-4.17,79.7,0.987,-4.03,-5.78,79.1,1.108,-6.21,-7.28,75.4,0.79,
-11.39,-9.67,81.4,1.372,-3.96,-4.18,79.7,0.987,-3.99,-5.78,79.1,1.11,-6.2,-7.25,75.3,0.788,
-11.33,-9.67,81.4,1.376,-3.91,-4.18,79.7,0.988,-3.97,-5.8,79.2,1.109,-6.18,-7.22,75.3,0.788,
-11.39,-9.73,81.4,1.379,-3.88,-4.17,79.7,0.986,-3.96,-5.82,79.2,1.108,-6.18,-7.19,75.2,0.783,
-11.47,-9.84,81.4,1.377,-3.92,-4.23,79.7,0.985,-3.96,-5.86,79.2,1.109,-6.16,-7.15,75.2,0.782,
-11.45,-9.9,81.4,1.393,-3.71,-4.13,79.7,0.985,-3.8,-5.77,79.2,1.104,-5.96,-7.03,75.4,0.782,
-11.37,-9.92,81.4,1.428,-3.3,-3.91,79.6,0.985,-3.61,-5.66,79.1,1.096,-5.8,-6.79,74.9,0.783,
-11.26,-9.93,81.4,1.463,-2.86,-3.64,79.6,0.986,-3.36,-5.5,79,1.09,-5.56,-6.61,75,0.785,
-11.16,-9.97,81.3,1.506,-2.56,-3.47,79.6,0.982,-2.97,-5.26,79,1.084,-5.29,-6.34,74.8,0.791,
-11.41,-10.21,81.4,1.518,-2.64,-3.5,79.5,0.973,-2.59,-5.01,79,1.086,-5.04,-6.09,74.7,0.799,
-11.75,-10.52,81.5,1.517,-2.8,-3.6,79.5,0.958,-2.53,-4.98,79,1.084,-5.07,-6.04,74.7,0.8,
-12.16,-10.96,81.7,1.514,-2.83,-3.72,79.8,0.945,-2.7,-5.16,79,1.078,-5.2,-6.13,74.8,0.798,
-12.39,-11.15,81.8,1.515,-2.87,-3.77,79.8,0.939,-2.83,-5.26,79,1.071,-5.37,-6.25,74.9,0.793,
-12.4,-11.15,81.8,1.509,-2.82,-3.72,79.8,0.941,-2.95,-5.33,78.9,1.063,-5.58,-6.3,74.6,0.79,
-12.34,-11.14,81.8,1.508,-2.79,-3.7,79.8,0.938,-2.91,-5.33,79,1.06,-5.66,-6.39,74.8,0.788,
-12.17,-11,81.8,1.5,-2.75,-3.65,79.6,0.933,-2.87,-5.3,79,1.057,-5.74,-6.43,74.8,0.787,
-12.07,-10.88,81.7,1.496,-2.72,-3.58,79.5,0.932,-2.81,-5.26,79,1.056,-5.75,-6.43,74.9,0.79,
-12.05,-10.86,81.6,1.496,-2.69,-3.56,79.4,0.929,-2.76,-5.26,79.1,1.056,-5.73,-6.45,75,0.791,
-12.04,-10.85,81.6,1.494,-2.69,-3.54,79.4,0.929,-2.77,-5.26,79,1.054,-5.81,-6.47,74.9,0.787,
-12.03,-10.84,81.5,1.493,-2.7,-3.54,79.3,0.926,-2.81,-5.29,79,1.051,-5.85,-6.5,74.9,0.786,
-11.94,-10.81,81.5,1.491,-2.65,-3.52,79.4,0.926,-2.79,-5.29,79,1.051,-5.86,-6.52,75,0.785,
-11.88,-10.8,81.6,1.49,-2.63,-3.51,79.3,0.926,-2.79,-5.31,79,1.05,-5.91,-6.54,74.9,0.783,
-11.85,-10.78,81.6,1.491,-2.62,-3.49,79.3,0.926,-2.81,-5.32,79,1.048,-5.94,-6.55,75,0.783,
-11.76,-10.75,81.6,1.49,-2.55,-3.48,79.4,0.928,-2.77,-5.32,79,1.048,-5.89,-6.59,75.3,0.785,
-11.68,-10.72,81.6,1.491,-2.52,-3.46,79.4,0.927,-2.77,-5.32,79,1.047,-5.91,-6.59,75.3,0.784,
-11.61,-10.68,81.6,1.487,-2.49,-3.44,79.4,0.927,-2.78,-5.34,79,1.046,-5.97,-6.6,75.1,0.783,
-11.51,-10.64,81.7,1.488,-2.43,-3.42,79.3,0.928,-2.76,-5.33,79,1.045,-5.93,-6.59,75.2,0.785,
-11.44,-10.62,81.6,1.49,-2.39,-3.4,79.3,0.929,-2.72,-5.34,79.2,1.046,-5.94,-6.6,75.2,0.783,
-11.5,-10.73,81.8,1.476,-2.37,-3.49,79.6,0.919,-2.95,-5.53,79.2,1.036,-6.11,-6.68,75,0.779,
-12,-11.09,81.8,1.489,-2.54,-3.63,79.7,0.908,-2.9,-5.5,79.2,1.036,-6.13,-6.67,74.9,0.777,
-11.69,-10.91,81.8,1.481,-2.37,-3.52,79.7,0.918,-2.91,-5.55,79.2,1.034,-6.09,-6.71,75.1,0.781,
-11.48,-10.78,81.8,1.469,-2.27,-3.46,79.7,0.923,-2.97,-5.61,79.2,1.03,-6.12,-6.73,75.1,0.782,
-11.45,-10.75,81.8,1.475,-2.26,-3.43,79.6,0.922,-2.84,-5.54,79.3,1.033,-6.06,-6.65,75,0.785,
-11.34,-10.73,81.8,1.477,-2.18,-3.4,79.6,0.925,-2.77,-5.53,79.3,1.035,-5.97,-6.66,75.1,0.786,
-11.29,-10.66,81.7,1.485,-2.21,-3.37,79.5,0.925,-2.61,-5.41,79.3,1.038,-5.89,-6.58,75.1,0.791,
-11.25,-10.6,81.7,1.494,-2.21,-3.33,79.4,0.927,-2.49,-5.31,79.3,1.043,-5.84,-6.52,75,0.791,
-11.14,-10.53,81.7,1.499,-2.16,-3.28,79.3,0.93,-2.45,-5.25,79.2,1.045,-5.77,-6.47,75,0.795,
-11.02,-10.45,81.6,1.502,-2.1,-3.23,79.3,0.934,-2.44,-5.21,79,1.045,-5.72,-6.43,75,0.798,
-11.01,-10.39,81.5,1.514,-2.1,-3.2,79.2,0.937,-2.4,-5.14,79,1.049,-5.7,-6.37,74.7,0.799,
-10.95,-10.34,81.5,1.517,-2.08,-3.17,79.2,0.941,-2.45,-5.1,78.8,1.048,-5.68,-6.35,74.7,0.801,
-10.85,-10.3,81.5,1.517,-2.02,-3.14,79.2,0.943,-2.42,-5.09,78.9,1.048,-5.61,-6.35,74.9,0.801,
-10.81,-10.27,81.5,1.519,-2.01,-3.13,79.2,0.943,-2.47,-5.05,78.6,1.046,-5.61,-6.37,75,0.8,
-10.78,-10.24,81.4,1.518,-1.99,-3.12,79.2,0.943,-2.52,-5.03,78.5,1.044,-5.61,-6.34,74.9,0.803,
-10.69,-10.22,81.5,1.52,-1.93,-3.1,79.3,0.945,-2.51,-5,78.4,1.044,-5.57,-6.34,74.9,0.802,
-10.68,-10.2,81.4,1.519,-1.9,-3.1,79.3,0.945,-2.54,-4.98,78.2,1.043,-5.6,-6.33,74.8,0.802,
-10.66,-10.19,81.5,1.518,-1.88,-3.09,79.4,0.943,-2.6,-4.98,78.1,1.041,-5.6,-6.35,74.9,0.802,
-10.64,-10.23,81.5,1.509,-1.83,-3.11,79.5,0.941,-2.62,-4.99,78.1,1.036,-5.62,-6.36,74.7,0.8,
-10.71,-10.27,81.5,1.505,-1.82,-3.12,79.6,0.94,-2.68,-4.97,77.8,1.034,-5.67,-6.37,74.5,0.799,
-10.79,-10.31,81.6,1.499,-1.84,-3.15,79.7,0.936,-2.76,-4.95,77.7,1.031,-5.69,-6.42,74.8,0.797,
-10.77,-10.36,81.6,1.487,-1.79,-3.19,79.9,0.934,-2.9,-5.04,77.6,1.025,-5.74,-6.47,74.9,0.796,
-11.16,-10.71,81.8,1.484,-1.87,-3.38,80.2,0.917,-3.12,-5.15,77.3,1.016,-5.93,-6.57,74.7,0.786,
-11.58,-11.01,81.8,1.498,-2.03,-3.52,80.3,0.907,-3.18,-5.1,77.1,1.016,-5.97,-6.62,75,0.784,
-11.43,-10.91,81.8,1.49,-1.89,-3.47,80.5,0.915,-3.29,-5.15,76.9,1.012,-6.01,-6.67,75,0.785,
-11.45,-10.95,81.9,1.491,-1.85,-3.49,80.5,0.912,-3.35,-5.16,76.8,1.01,-6.05,-6.71,74.9,0.779,
-11.81,-11.17,81.9,1.499,-1.97,-3.58,80.6,0.906,-3.44,-5.16,76.7,1.007,-6.1,-6.74,75.1,0.778,
-12.13,-11.34,81.9,1.512,-2.12,-3.67,80.5,0.902,-3.55,-5.19,76.5,1.004,-6.27,-6.83,75,0.767,
-12.12,-11.33,81.9,1.52,-2.1,-3.66,80.5,0.91,-3.55,-5.21,76.6,1.004,-6.3,-6.86,75,0.766,
-12.11,-11.29,82,1.518,-2.07,-3.63,80.6,0.917,-3.66,-5.27,76.6,1,-6.4,-6.93,75.1,0.763,
-12.24,-11.35,82,1.521,-2.15,-3.66,80.5,0.915,-3.71,-5.3,76.7,0.998,-6.5,-6.94,74.9,0.76,
-12.29,-11.38,82,1.522,-2.2,-3.7,80.6,0.913,-3.72,-5.34,76.8,0.999,-6.55,-7.01,75,0.758,
-12.3,-11.37,82,1.526,-2.2,-3.67,80.5,0.919,-3.77,-5.4,76.9,0.998,-6.57,-7.03,75,0.758,
-12.21,-11.29,82,1.526,-2.19,-3.61,80.4,0.928,-3.86,-5.47,77,0.997,-6.55,-7.08,75.2,0.754,
-12.06,-11.13,81.9,1.521,-2.29,-3.58,80.2,0.929,-3.97,-5.56,77.2,0.994,-6.59,-7.12,75.1,0.751,
-11.89,-10.91,81.8,1.532,-2.3,-3.47,79.8,0.931,-4,-5.59,77.2,0.994,-6.5,-7.13,75.2,0.755,
-11.75,-10.64,81.6,1.538,-2.22,-3.31,79.6,0.936,-4.08,-5.65,77.3,0.997,-6.61,-7.23,75.3,0.754,
-11.55,-10.38,81.5,1.524,-2.1,-3.19,79.4,0.942,-4.15,-5.73,77.4,1.006,-6.87,-7.39,75,0.749,
-11.39,-10.18,81.4,1.488,-2.18,-3.23,79.3,0.957,-4.24,-5.87,77.6,1.018,-7.04,-7.65,75.5,0.745,
-11.37,-10,81.2,1.458,-2.33,-3.26,79.3,0.959,-4.25,-5.92,77.8,1.021,-7.16,-7.79,75.6,0.736,
-11.73,-10.01,81,1.425,-2.79,-3.45,79.2,0.958,-4.36,-5.98,77.9,1.024,-7.3,-7.97,75.7,0.731,
-12.14,-10.04,81,1.391,-3.34,-3.7,79.2,0.961,-4.32,-5.93,78.2,1.029,-7.27,-8.01,75.7,0.733,
-12.48,-10.05,80.9,1.367,-3.59,-3.77,79.2,0.968,-4.08,-5.72,78.4,1.038,-6.99,-7.89,75.9,0.74,
-12.75,-10.12,81,1.346,-3.73,-3.79,79.1,0.973,-3.92,-5.58,78.5,1.043,-6.8,-7.76,75.8,0.745,
-12.93,-10.24,80.9,1.327,-3.96,-3.91,79,0.971,-3.97,-5.62,78.6,1.049,-6.7,-7.69,75.9,0.753,
-13.1,-10.44,81.1,1.324,-4.26,-4.14,79.1,0.966,-4.13,-5.8,78.8,1.053,-6.9,-7.76,75.5,0.756,
-13.16,-10.57,81.2,1.326,-4.53,-4.33,79.2,0.958,-4.37,-5.98,78.7,1.055,-7.17,-7.93,75.8,0.745,
-13.2,-10.68,81.3,1.34,-4.57,-4.35,79,0.955,-4.51,-6.07,78.8,1.053,-7.19,-7.85,75.5,0.741,
-13.02,-10.71,81.3,1.384,-4.13,-4.09,78.8,0.952,-4.33,-5.97,78.7,1.041,-6.84,-7.55,75.4,0.749,
-12.86,-10.78,81.3,1.433,-3.61,-3.8,78.8,0.948,-4.03,-5.78,78.6,1.026,-6.49,-7.23,75.2,0.756,
-12.79,-10.88,81.3,1.462,-3.44,-3.69,78.7,0.944,-3.72,-5.55,78.5,1.023,-6.21,-6.94,75,0.761,
-12.94,-11.1,81.4,1.465,-3.49,-3.71,78.6,0.935,-3.43,-5.33,78.3,1.027,-5.97,-6.71,75.1,0.767,
-13.26,-11.49,81.7,1.458,-3.46,-3.83,78.9,0.92,-3.48,-5.39,78.3,1.028,-5.99,-6.68,74.9,0.765,
-13.77,-11.89,81.8,1.481,-3.57,-3.97,79.1,0.914,-3.68,-5.54,78.3,1.024,-6.11,-6.75,74.8,0.763,
-13.72,-11.85,81.8,1.495,-3.56,-3.94,79.1,0.922,-3.82,-5.63,78.2,1.021,-6.15,-6.78,74.8,0.764,
-13.15,-11.42,81.7,1.497,-3.37,-3.74,78.8,0.934,-3.92,-5.72,78.3,1.017,-6.14,-6.91,75.1,0.764,
-12.58,-10.94,81.7,1.491,-3.12,-3.52,78.6,0.946,-4.21,-5.94,78.3,1.019,-6.5,-7.2,74.9,0.756,
-12.29,-10.59,81.7,1.464,-3.1,-3.5,78.6,0.955,-4.54,-6.17,78.5,1.026,-7.01,-7.65,75.2,0.743,
-12.23,-10.38,81.6,1.406,-3.36,-3.63,78.8,0.962,-4.52,-6.18,78.7,1.034,-7.09,-7.89,75.7,0.738,
-12.33,-10.2,81.3,1.363,-3.78,-3.82,78.8,0.965,-4.38,-6.03,78.7,1.039,-7.03,-7.92,75.7,0.74,
-12.62,-10.1,81.1,1.34,-3.92,-3.83,78.9,0.973,-4.11,-5.73,78.8,1.045,-6.76,-7.73,75.5,0.748,
-13.04,-10.3,81,1.327,-4.14,-3.99,79,0.979,-4.06,-5.69,78.8,1.055,-6.58,-7.7,75.7,0.757,
-13.18,-10.37,81,1.324,-4.24,-4.05,79,0.981,-4.05,-5.69,78.9,1.058,-6.62,-7.73,75.6,0.755,
-13.22,-10.39,81.1,1.329,-4.26,-4.05,79,0.983,-4.06,-5.69,78.9,1.06,-6.62,-7.8,75.8,0.753,
-13.14,-10.32,81.1,1.325,-4.27,-4.06,79,0.984,-4.09,-5.7,78.9,1.061,-6.58,-7.82,75.9,0.753,
-13.01,-10.22,81.1,1.319,-4.2,-4.05,79.1,0.987,-4.04,-5.67,78.9,1.065,-6.47,-7.77,75.8,0.757,
-12.92,-10.16,81.1,1.318,-4.21,-4.05,79.1,0.99,-4.07,-5.66,78.8,1.069,-6.43,-7.77,75.9,0.758,
-12.8,-10.07,81.1,1.318,-4.22,-4.05,79.2,0.992,-4.09,-5.65,78.9,1.072,-6.39,-7.78,76.1,0.758,
-12.58,-9.95,81.1,1.315,-4.17,-4.02,79.2,0.995,-4.05,-5.62,78.8,1.075,-6.29,-7.73,76,0.76,
-12.44,-9.89,81.1,1.314,-4.14,-4.02,79.2,0.997,-4.02,-5.59,78.8,1.079,-6.15,-7.67,76.1,0.766,
-12.39,-9.85,81.2,1.315,-4.16,-4.02,79.2,0.998,-4.04,-5.58,78.8,1.083,-6.14,-7.67,76.2,0.767,
-12.32,-9.8,81.1,1.314,-4.18,-4.02,79.2,0.999,-4.05,-5.58,78.8,1.084,-6.15,-7.61,75.8,0.768,
-12.15,-9.73,81.2,1.315,-4.12,-4,79.2,1.001,-3.98,-5.56,78.8,1.087,-5.99,-7.59,76.1,0.772,
-12.06,-9.69,81.2,1.317,-4.11,-4,79.3,1.002,-3.96,-5.54,78.8,1.089,-5.94,-7.56,76.1,0.773,
-11.99,-9.64,81.2,1.318,-4.12,-3.99,79.3,1.003,-3.98,-5.52,78.7,1.091,-5.89,-7.5,76,0.777,
-11.92,-9.6,81.2,1.317,-4.11,-3.99,79.3,1.004,-3.96,-5.52,78.8,1.092,-5.85,-7.5,76.2,0.777,
-11.82,-9.57,81.2,1.318,-4.08,-3.98,79.3,1.005,-3.92,-5.5,78.8,1.095,-5.79,-7.46,76,0.779,
-11.79,-9.53,81.2,1.317,-4.08,-3.98,79.3,1.006,-3.92,-5.48,78.8,1.097,-5.73,-7.41,76,0.783,
-11.8,-9.55,81.3,1.316,-4.09,-3.97,79.3,1.007,-3.91,-5.48,78.8,1.097,-5.73,-7.39,75.9,0.783,
-11.76,-9.53,81.2,1.317,-4.05,-3.97,79.2,1.008,-3.87,-5.45,78.8,1.102,-5.66,-7.38,76,0.782,
-11.81,-9.55,81.2,1.316,-4.05,-3.97,79.2,1.01,-3.87,-5.45,78.8,1.103,-5.63,-7.36,76,0.785,
-11.79,-9.55,81.2,1.315,-4.08,-3.99,79.2,1.011,-3.87,-5.45,78.9,1.104,-5.61,-7.34,75.9,0.785,
-11.66,-9.51,81.3,1.32,-4.05,-3.99,79.2,1.013,-3.83,-5.45,78.9,1.106,-5.49,-7.33,76.2,0.787,
-11.59,-9.47,81.3,1.319,-4.08,-4.02,79.2,1.014,-3.83,-5.46,79,1.109,-5.46,-7.28,76,0.79,
-11.59,-9.5,81.3,1.317,-4.12,-4.05,79.3,1.014,-3.85,-5.46,79,1.111,-5.45,-7.27,76.1,0.79,
-11.43,-9.45,81.3,1.321,-4.02,-4.01,79.3,1.016,-3.76,-5.41,79,1.114,-5.36,-7.25,76.1,0.79,
-11.33,-9.38,81.3,1.322,-3.95,-3.97,79.3,1.017,-3.69,-5.37,79,1.116,-5.28,-7.19,76.2,0.795,
-11.24,-9.33,81.3,1.321,-3.94,-3.96,79.3,1.018,-3.68,-5.36,79,1.116,-5.23,-7.14,76,0.799,
-11.12,-9.3,81.4,1.323,-3.88,-3.95,79.3,1.021,-3.6,-5.33,79,1.121,-5.12,-7.13,76.2,0.798,
-11.03,-9.26,81.4,1.327,-3.86,-3.96,79.3,1.022,-3.57,-5.33,79,1.124,-5.09,-7.15,76.4,0.798,
-10.93,-9.2,81.4,1.328,-3.86,-3.94,79.2,1.021,-3.53,-5.31,79.1,1.124,-5.04,-7.13,76.5,0.801,
-10.77,-9.15,81.5,1.33,-3.79,-3.93,79.3,1.023,-3.44,-5.29,79.1,1.127,-4.97,-7.09,76.4,0.802,
-10.65,-9.1,81.5,1.333,-3.74,-3.9,79.3,1.024,-3.4,-5.25,79,1.127,-4.92,-7.08,76.5,0.803,
-10.59,-9.06,81.5,1.335,-3.72,-3.89,79.2,1.024,-3.37,-5.24,79.1,1.13,-4.89,-7.06,76.5,0.804,
-10.42,-8.98,81.5,1.335,-3.65,-3.88,79.2,1.025,-3.31,-5.22,79.1,1.133,-4.78,-7.03,76.7,0.807,
-10.37,-8.97,81.5,1.337,-3.63,-3.87,79.2,1.025,-3.29,-5.21,79.1,1.134,-4.76,-7.02,76.7,0.808,
-10.33,-8.96,81.6,1.339,-3.62,-3.86,79.2,1.025,-3.28,-5.2,79.1,1.135,-4.77,-6.98,76.5,0.809,
-10.41,-8.99,81.5,1.339,-3.61,-3.87,79.3,1.026,-3.24,-5.18,79.1,1.138,-4.69,-6.98,76.6,0.811,
-10.46,-9.01,81.5,1.338,-3.62,-3.87,79.3,1.025,-3.21,-5.16,79.2,1.14,-4.66,-6.95,76.7,0.811,
-10.5,-9.02,81.5,1.337,-3.64,-3.87,79.3,1.024,-3.21,-5.14,79.1,1.14,-4.63,-6.94,76.7,0.812,
-10.45,-9.01,81.5,1.338,-3.61,-3.87,79.3,1.026,-3.14,-5.13,79.2,1.142,-4.61,-6.92,76.5,0.81,
-10.53,-9.04,81.5,1.338,-3.63,-3.88,79.3,1.027,-3.14,-5.11,79.1,1.143,-4.56,-6.9,76.7,0.813,
-10.55,-9.04,81.5,1.337,-3.65,-3.88,79.3,1.027,-3.13,-5.1,79.1,1.143,-4.55,-6.87,76.6,0.814,
-10.49,-9.03,81.5,1.338,-3.62,-3.87,79.3,1.028,-3.07,-5.07,79.2,1.146,-4.49,-6.88,76.8,0.814,
-10.54,-9.04,81.4,1.337,-3.63,-3.87,79.3,1.027,-3.06,-5.07,79.2,1.145,-4.48,-6.84,76.7,0.816,
-10.57,-9.05,81.5,1.336,-3.64,-3.87,79.3,1.028,-3.05,-5.05,79.2,1.146,-4.44,-6.85,76.9,0.817,
-10.56,-9.05,81.5,1.336,-3.62,-3.87,79.3,1.029,-3,-5.02,79.1,1.148,-4.39,-6.8,76.7,0.819,
-10.61,-9.06,81.5,1.335,-3.63,-3.87,79.3,1.029,-3.01,-5.01,79.1,1.147,-4.41,-6.78,76.6,0.818,
-10.62,-9.06,81.4,1.335,-3.64,-3.87,79.3,1.028,-2.98,-5,79.1,1.148,-4.39,-6.78,76.6,0.818,
-10.59,-9.06,81.5,1.336,-3.62,-3.86,79.3,1.029,-2.95,-4.97,79.1,1.148,-4.36,-6.73,76.4,0.82,
-10.63,-9.06,81.4,1.334,-3.62,-3.86,79.3,1.029,-2.95,-4.95,79,1.149,-4.35,-6.7,76.4,0.821,
-10.67,-9.07,81.4,1.334,-3.63,-3.85,79.2,1.029,-2.94,-4.94,79,1.149,-4.38,-6.68,76.2,0.818,
-10.67,-9.08,81.5,1.334,-3.61,-3.85,79.2,1.03,-2.9,-4.92,79,1.15,-4.31,-6.65,76.2,0.822,
-10.71,-9.08,81.4,1.333,-3.63,-3.85,79.2,1.03,-2.9,-4.89,78.9,1.15,-4.35,-6.61,75.9,0.82,
-10.71,-9.07,81.4,1.332,-3.62,-3.85,79.2,1.03,-2.88,-4.87,78.9,1.15,-4.35,-6.6,75.9,0.819,
-10.66,-9.05,81.4,1.332,-3.58,-3.84,79.3,1.032,-2.83,-4.85,78.8,1.151,-4.32,-6.55,75.6,0.822,
-10.63,-9.03,81.4,1.332,-3.58,-3.83,79.2,1.032,-2.83,-4.84,78.8,1.151,-4.3,-6.53,75.7,0.824,
-10.58,-9,81.4,1.332,-3.56,-3.82,79.3,1.032,-2.8,-4.83,78.8,1.152,-4.33,-6.53,75.5,0.82,
-10.5,-8.98,81.4,1.332,-3.52,-3.8,79.2,1.033,-2.75,-4.81,78.9,1.154,-4.26,-6.48,75.5,0.825,
-10.45,-8.95,81.4,1.333,-3.5,-3.79,79.3,1.035,-2.75,-4.79,78.8,1.153,-4.25,-6.47,75.5,0.825,
-10.49,-8.96,81.4,1.334,-3.5,-3.79,79.3,1.034,-2.74,-4.77,78.7,1.153,-4.24,-6.49,75.7,0.823,
-10.53,-8.98,81.4,1.334,-3.49,-3.8,79.2,1.035,-2.69,-4.77,78.8,1.155,-4.17,-6.45,75.6,0.828,
-10.56,-8.99,81.4,1.333,-3.49,-3.8,79.3,1.036,-2.66,-4.76,78.9,1.156,-4.23,-6.41,75.2,0.825,
-10.58,-9,81.4,1.332,-3.49,-3.8,79.3,1.037,-2.64,-4.75,78.9,1.155,-4.21,-6.41,75.3,0.825,
-10.56,-9,81.4,1.333,-3.46,-3.79,79.3,1.038,-2.6,-4.73,78.8,1.156,-4.17,-6.39,75.3,0.826,
-10.6,-9.01,81.3,1.332,-3.46,-3.79,79.3,1.038,-2.58,-4.71,78.8,1.156,-4.16,-6.37,75.3,0.828,
-10.68,-9.03,81.3,1.331,-3.48,-3.79,79.3,1.038,-2.55,-4.7,78.9,1.157,-4.17,-6.38,75.3,0.825,
-10.66,-9.04,81.4,1.33,-3.45,-3.79,79.4,1.039,-2.5,-4.68,78.8,1.158,-4.09,-6.36,75.4,0.828,
-10.68,-9.05,81.4,1.33,-3.45,-3.79,79.3,1.038,-2.45,-4.67,78.9,1.159,-4.08,-6.34,75.4,0.83,
-10.68,-9.04,81.3,1.33,-3.44,-3.78,79.4,1.039,-2.44,-4.66,78.8,1.158,-4.08,-6.33,75.3,0.829,
-10.64,-9.03,81.3,1.331,-3.4,-3.78,79.4,1.04,-2.39,-4.64,78.8,1.16,-4.04,-6.3,75.3,0.83,
-10.65,-9.04,81.3,1.331,-3.39,-3.77,79.4,1.042,-2.36,-4.63,78.8,1.16,-4.02,-6.3,75.4,0.83,
-10.7,-9.05,81.3,1.331,-3.4,-3.77,79.4,1.041,-2.33,-4.62,78.8,1.16,-4.01,-6.29,75.3,0.831,
-10.68,-9.06,81.3,1.33,-3.36,-3.77,79.4,1.042,-2.26,-4.6,78.9,1.162,-3.9,-6.31,75.8,0.834,
-10.7,-9.07,81.3,1.329,-3.35,-3.77,79.5,1.043,-2.22,-4.6,78.9,1.161,-3.9,-6.28,75.6,0.834,
-10.68,-9.06,81.3,1.33,-3.35,-3.76,79.4,1.042,-2.19,-4.58,78.9,1.162,-3.89,-6.3,75.7,0.831,
-10.55,-9.01,81.3,1.331,-3.26,-3.74,79.5,1.045,-2.11,-4.56,78.9,1.164,-3.82,-6.26,75.7,0.836,
-10.46,-8.98,81.4,1.332,-3.21,-3.72,79.5,1.046,-2.06,-4.55,79,1.165,-3.82,-6.24,75.7,0.836,
-10.41,-8.96,81.3,1.333,-3.18,-3.71,79.5,1.048,-2.04,-4.52,78.9,1.166,-3.8,-6.22,75.6,0.837,
-10.27,-8.92,81.4,1.334,-3.09,-3.68,79.5,1.049,-1.95,-4.51,79,1.167,-3.77,-6.2,75.5,0.836,
-10.2,-8.88,81.4,1.335,-3.04,-3.66,79.5,1.051,-1.91,-4.49,79,1.168,-3.72,-6.2,75.7,0.838,
-10.16,-8.87,81.4,1.337,-3.02,-3.66,79.5,1.051,-1.9,-4.47,78.9,1.167,-3.72,-6.19,75.7,0.837,
-10.07,-8.84,81.4,1.338,-2.96,-3.64,79.6,1.052,-1.82,-4.45,78.9,1.169,-3.67,-6.15,75.5,0.84,
-10,-8.81,81.4,1.34,-2.92,-3.63,79.6,1.053,-1.79,-4.43,78.9,1.17,-3.66,-6.13,75.5,0.841,
-9.89,-8.76,81.4,1.34,-2.88,-3.61,79.6,1.053,-1.76,-4.41,78.9,1.171,-3.66,-6.12,75.5,0.839,
-9.76,-8.72,81.4,1.341,-2.83,-3.6,79.6,1.054,-1.69,-4.4,79,1.173,-3.58,-6.11,75.7,0.842,
-9.74,-8.71,81.4,1.343,-2.8,-3.58,79.6,1.055,-1.65,-4.37,79,1.174,-3.57,-6.08,75.5,0.843,
-9.96,-8.8,81.4,1.341,-2.88,-3.61,79.6,1.051,-1.63,-4.38,79.1,1.173,-3.53,-6.08,75.7,0.845,
-10.09,-8.86,81.4,1.342,-2.95,-3.64,79.6,1.049,-1.61,-4.36,79,1.174,-3.56,-6.06,75.5,0.843,
-10.09,-8.87,81.4,1.341,-2.96,-3.64,79.6,1.048,-1.58,-4.36,79.1,1.174,-3.54,-6.05,75.4,0.844,
-10.1,-8.88,81.4,1.339,-2.97,-3.64,79.7,1.048,-1.57,-4.34,79,1.174,-3.55,-6.04,75.4,0.842,
-10.09,-8.87,81.4,1.339,-2.96,-3.64,79.6,1.047,-1.54,-4.33,79.1,1.174,-3.51,-6.01,75.4,0.847,
-10.04,-8.87,81.4,1.339,-2.93,-3.63,79.6,1.048,-1.49,-4.31,79,1.175,-3.47,-6.03,75.7,0.846,
-10.1,-8.88,81.3,1.339,-2.95,-3.64,79.6,1.047,-1.49,-4.31,79.1,1.174,-3.48,-6,75.5,0.846,
-10.11,-8.89,81.4,1.339,-2.97,-3.64,79.6,1.047,-1.48,-4.3,79,1.175,-3.45,-5.98,75.5,0.849,
-10.06,-8.89,81.4,1.34,-2.93,-3.63,79.6,1.048,-1.44,-4.28,79,1.176,-3.41,-5.99,75.6,0.848,
-10.08,-8.9,81.4,1.339,-2.94,-3.63,79.6,1.048,-1.42,-4.29,79.1,1.176,-3.42,-5.96,75.5,0.848,
-10.04,-8.88,81.4,1.339,-2.93,-3.62,79.6,1.048,-1.41,-4.27,79.1,1.176,-3.43,-5.94,75.4,0.848,
-9.98,-8.87,81.4,1.34,-2.88,-3.61,79.6,1.049,-1.36,-4.26,79.1,1.177,-3.37,-5.93,75.4,0.851,
-9.99,-8.87,81.4,1.34,-2.89,-3.61,79.6,1.049,-1.35,-4.25,79.1,1.177,-3.34,-5.93,75.7,0.852,
-10,-8.88,81.4,1.339,-2.9,-3.61,79.6,1.049,-1.34,-4.24,79.1,1.177,-3.35,-5.91,75.5,0.851,
-9.92,-8.86,81.4,1.341,-2.85,-3.6,79.7,1.049,-1.28,-4.24,79.2,1.179,-3.33,-5.91,75.5,0.85,
-9.81,-8.81,81.5,1.343,-2.81,-3.58,79.6,1.051,-1.27,-4.22,79.1,1.179,-3.32,-5.9,75.5,0.852,
-9.75,-8.78,81.4,1.343,-2.78,-3.57,79.6,1.051,-1.24,-4.21,79.2,1.18,-3.32,-5.88,75.4,0.851,
-9.62,-8.74,81.5,1.344,-2.72,-3.55,79.6,1.054,-1.19,-4.2,79.2,1.181,-3.21,-5.87,75.7,0.858,
-9.55,-8.71,81.5,1.345,-2.69,-3.54,79.7,1.054,-1.18,-4.18,79.2,1.182,-3.27,-5.83,75.3,0.855,
-9.48,-8.68,81.5,1.346,-2.67,-3.53,79.7,1.055,-1.17,-4.17,79.2,1.182,-3.27,-5.82,75.3,0.855,
-9.35,-8.64,81.5,1.349,-2.6,-3.51,79.7,1.057,-1.12,-4.17,79.3,1.182,-3.2,-5.84,75.6,0.856,
-9.25,-8.6,81.5,1.351,-2.56,-3.49,79.7,1.058,-1.08,-4.16,79.3,1.184,-3.21,-5.81,75.4,0.857,
-9.18,-8.56,81.6,1.351,-2.54,-3.48,79.7,1.058,-1.09,-4.15,79.3,1.183,-3.21,-5.79,75.4,0.856,
-9.05,-8.51,81.5,1.353,-2.49,-3.46,79.7,1.059,-1.02,-4.14,79.4,1.186,-3.14,-5.77,75.5,0.86,
-8.97,-8.48,81.5,1.354,-2.46,-3.45,79.7,1.059,-1.02,-4.13,79.3,1.185,-3.16,-5.77,75.4,0.857,
-8.93,-8.46,81.5,1.355,-2.45,-3.44,79.7,1.059,-1.02,-4.13,79.3,1.186,-3.14,-5.77,75.5,0.859,
-8.89,-8.44,81.5,1.356,-2.41,-3.44,79.8,1.06,-0.98,-4.12,79.4,1.188,-3.16,-5.75,75.3,0.857,
-8.9,-8.46,81.6,1.357,-2.41,-3.43,79.8,1.057,-0.98,-4.11,79.3,1.188,-3.12,-5.74,75.4,0.86,
-8.84,-8.42,81.5,1.357,-2.39,-3.42,79.8,1.057,-0.97,-4.11,79.4,1.187,-3.09,-5.75,75.6,0.861,
-8.73,-8.38,81.5,1.357,-2.35,-3.41,79.8,1.058,-0.95,-4.1,79.3,1.187,-3.03,-5.74,75.8,0.865,
-8.66,-8.36,81.6,1.359,-2.32,-3.4,79.8,1.059,-0.93,-4.09,79.3,1.189,-3.03,-5.74,75.8,0.863,
-8.86,-8.44,81.6,1.359,-2.38,-3.41,79.8,1.055,-0.93,-4.1,79.5,1.189,-3.02,-5.74,75.9,0.865,
-9.05,-8.51,81.6,1.357,-2.48,-3.45,79.7,1.052,-0.96,-4.1,79.3,1.187,-3,-5.73,75.9,0.865,
-9.08,-8.53,81.6,1.356,-2.52,-3.46,79.7,1.051,-0.96,-4.11,79.4,1.186,-3,-5.76,76.1,0.861,
-9.04,-8.52,81.6,1.354,-2.52,-3.46,79.7,1.05,-0.95,-4.09,79.3,1.187,-3,-5.72,75.9,0.865,
-8.95,-8.48,81.6,1.354,-2.48,-3.44,79.7,1.051,-0.93,-4.07,79.3,1.188,-2.95,-5.71,76,0.867,
-8.87,-8.46,81.6,1.355,-2.44,-3.43,79.7,1.053,-0.9,-4.06,79.2,1.189,-2.94,-5.71,76,0.866,
-8.94,-8.48,81.6,1.355,-2.46,-3.44,79.7,1.052,-0.9,-4.05,79.2,1.189,-2.93,-5.73,76.2,0.866,
-8.98,-8.51,81.6,1.355,-2.47,-3.44,79.7,1.051,-0.87,-4.04,79.2,1.189,-2.9,-5.71,76.2,0.867,
-8.99,-8.51,81.6,1.355,-2.47,-3.44,79.7,1.051,-0.87,-4.03,79.2,1.188,-2.92,-5.71,76.1,0.865,
-9,-8.52,81.6,1.355,-2.48,-3.44,79.7,1.051,-0.89,-4.03,79.1,1.187,-2.9,-5.69,76.1,0.87,
-8.9,-8.49,81.6,1.356,-2.43,-3.42,79.6,1.052,-0.84,-4.02,79.2,1.188,-2.88,-5.69,76.1,0.869,
-8.88,-8.49,81.6,1.357,-2.41,-3.41,79.6,1.053,-0.85,-4.01,79,1.188,-2.87,-5.72,76.3,0.869,
-8.9,-8.49,81.7,1.357,-2.42,-3.41,79.6,1.053,-0.85,-4,79.1,1.189,-2.91,-5.69,76.1,0.868,
-8.89,-8.49,81.6,1.358,-2.41,-3.41,79.6,1.053,-0.83,-3.99,79,1.188,-2.91,-5.66,75.9,0.869,
-8.89,-8.49,81.6,1.359,-2.4,-3.41,79.7,1.053,-0.82,-3.99,79,1.188,-2.87,-5.68,76.1,0.869,
-8.95,-8.52,81.7,1.357,-2.42,-3.41,79.6,1.052,-0.84,-3.97,78.9,1.188,-2.9,-5.66,76,0.87,
-8.99,-8.54,81.6,1.356,-2.44,-3.41,79.6,1.052,-0.83,-3.97,79,1.188,-2.87,-5.66,76.1,0.87,
-9.02,-8.55,81.6,1.355,-2.45,-3.42,79.6,1.053,-0.83,-3.96,78.9,1.188,-2.87,-5.66,76.1,0.87,
-9.04,-8.55,81.6,1.355,-2.47,-3.42,79.6,1.052,-0.84,-3.97,78.9,1.189,-2.89,-5.63,75.9,0.872,
-9,-8.53,81.6,1.355,-2.44,-3.41,79.6,1.053,-0.85,-3.95,78.8,1.188,-2.91,-5.62,75.8,0.869,
-8.9,-8.51,81.7,1.357,-2.4,-3.39,79.6,1.054,-0.82,-3.93,78.8,1.189,-2.94,-5.56,75.3,0.869,
-8.88,-8.48,81.6,1.358,-2.38,-3.37,79.6,1.055,-0.81,-3.92,78.8,1.19,-2.96,-5.52,75.1,0.871,
-8.88,-8.49,81.6,1.359,-2.37,-3.37,79.6,1.056,-0.78,-3.93,78.9,1.19,-2.96,-5.5,75,0.871,
-8.89,-8.5,81.6,1.359,-2.36,-3.36,79.5,1.056,-0.77,-3.93,78.9,1.19,-2.92,-5.49,75.1,0.873,
-8.99,-8.53,81.6,1.358,-2.4,-3.38,79.5,1.055,-0.79,-3.94,78.9,1.189,-2.97,-5.49,74.9,0.87,
-9.05,-8.56,81.6,1.356,-2.43,-3.39,79.5,1.054,-0.8,-3.95,78.9,1.188,-2.94,-5.5,75.1,0.871,
-9.05,-8.57,81.6,1.358,-2.44,-3.4,79.5,1.054,-0.81,-3.96,78.9,1.187,-2.94,-5.49,75,0.871,
-9.11,-8.59,81.6,1.356,-2.48,-3.41,79.5,1.052,-0.82,-3.97,79,1.187,-2.95,-5.47,74.9,0.872,
-9.16,-8.61,81.6,1.355,-2.5,-3.42,79.5,1.053,-0.83,-3.98,79,1.186,-2.95,-5.46,74.8,0.873,
-9.13,-8.61,81.6,1.356,-2.5,-3.42,79.5,1.051,-0.81,-3.98,79.1,1.188,-2.89,-5.49,75.3,0.874,
-9.16,-8.61,81.6,1.355,-2.52,-3.43,79.5,1.051,-0.83,-4,79.1,1.186,-2.95,-5.48,75,0.87,
-9.16,-8.6,81.6,1.352,-2.53,-3.43,79.5,1.05,-0.83,-4,79.1,1.187,-2.92,-5.46,75,0.873,
-9.11,-8.6,81.6,1.353,-2.5,-3.43,79.5,1.051,-0.79,-3.99,79.2,1.188,-2.88,-5.41,74.9,0.876,
-9.18,-8.62,81.6,1.352,-2.53,-3.44,79.5,1.05,-0.8,-4,79.2,1.187,-2.92,-5.43,74.8,0.871,
-9.24,-8.64,81.6,1.352,-2.58,-3.45,79.5,1.048,-0.82,-4.01,79.1,1.186,-2.93,-5.41,74.7,0.873,
-9.2,-8.64,81.6,1.353,-2.56,-3.45,79.5,1.048,-0.79,-4.03,79.3,1.186,-2.88,-5.42,74.9,0.875,
-9.17,-8.63,81.6,1.354,-2.56,-3.45,79.5,1.049,-0.8,-4.03,79.3,1.186,-2.86,-5.42,75.1,0.877,
-9.14,-8.6,81.6,1.354,-2.55,-3.44,79.5,1.048,-0.79,-4.02,79.3,1.187,-2.88,-5.41,74.9,0.875,
-9.06,-8.58,81.6,1.354,-2.51,-3.43,79.5,1.049,-0.74,-4.03,79.4,1.187,-2.84,-5.38,74.9,0.878,
-9,-8.56,81.6,1.356,-2.48,-3.42,79.5,1.049,-0.73,-4.02,79.3,1.188,-2.85,-5.39,74.9,0.877,
-8.99,-8.54,81.6,1.356,-2.48,-3.41,79.5,1.049,-0.7,-4.02,79.4,1.188,-2.81,-5.4,75.2,0.879,
-9,-8.56,81.6,1.356,-2.47,-3.41,79.5,1.049,-0.68,-4.02,79.4,1.188,-2.75,-5.43,75.5,0.879,
-9.02,-8.56,81.6,1.356,-2.48,-3.41,79.5,1.048,-0.68,-4.02,79.4,1.189,-2.73,-5.45,75.7,0.878,
-9.02,-8.56,81.6,1.357,-2.49,-3.41,79.5,1.047,-0.68,-4.03,79.5,1.188,-2.74,-5.41,75.5,0.881,
-8.94,-8.53,81.6,1.358,-2.45,-3.4,79.5,1.047,-0.65,-4.03,79.5,1.189,-2.74,-5.4,75.3,0.88,
-8.81,-8.48,81.6,1.36,-2.39,-3.38,79.6,1.049,-0.61,-4,79.4,1.19,-2.72,-5.41,75.4,0.879,
-8.74,-8.45,81.7,1.362,-2.35,-3.36,79.6,1.05,-0.6,-3.99,79.4,1.191,-2.69,-5.4,75.6,0.883,
-8.74,-8.44,81.6,1.36,-2.34,-3.35,79.6,1.05,-0.57,-3.98,79.5,1.191,-2.68,-5.34,75.3,0.885,
-8.79,-8.48,81.6,1.362,-2.36,-3.36,79.6,1.049,-0.57,-3.99,79.5,1.19,-2.7,-5.37,75.4,0.881,
-8.88,-8.51,81.6,1.36,-2.41,-3.37,79.5,1.047,-0.61,-4,79.4,1.188,-2.69,-5.37,75.4,0.882,
-8.93,-8.53,81.6,1.359,-2.44,-3.39,79.5,1.046,-0.62,-4.01,79.4,1.188,-2.68,-5.36,75.4,0.884,
-8.94,-8.54,81.6,1.359,-2.44,-3.39,79.5,1.046,-0.61,-4.01,79.5,1.189,-2.72,-5.37,75.3,0.879,
-9.02,-8.56,81.6,1.358,-2.49,-3.4,79.5,1.044,-0.66,-4.03,79.4,1.186,-2.68,-5.37,75.5,0.883,
-9.08,-8.59,81.6,1.357,-2.52,-3.41,79.5,1.044,-0.69,-4.03,79.4,1.186,-2.72,-5.37,75.4,0.882,
-9.08,-8.6,81.7,1.356,-2.52,-3.41,79.4,1.044,-0.66,-4.04,79.5,1.187,-2.72,-5.35,75.3,0.882,
-9.11,-8.6,81.6,1.354,-2.54,-3.42,79.5,1.043,-0.7,-4.04,79.4,1.185,-2.71,-5.37,75.5,0.882,
-9.13,-8.6,81.6,1.354,-2.56,-3.42,79.4,1.043,-0.69,-4.05,79.5,1.186,-2.71,-5.35,75.4,0.883,
-9.11,-8.61,81.7,1.355,-2.55,-3.41,79.4,1.043,-0.68,-4.04,79.4,1.187,-2.68,-5.36,75.6,0.884,
-9.15,-8.61,81.6,1.354,-2.57,-3.42,79.4,1.044,-0.71,-4.05,79.4,1.184,-2.7,-5.35,75.5,0.883,
-9.13,-8.6,81.6,1.355,-2.56,-3.42,79.4,1.044,-0.69,-4.05,79.4,1.185,-2.7,-5.33,75.3,0.882,
-9.12,-8.61,81.7,1.354,-2.56,-3.42,79.4,1.043,-0.69,-4.04,79.3,1.185,-2.66,-5.32,75.4,0.887,
-9.16,-8.61,81.6,1.353,-2.58,-3.41,79.4,1.043,-0.7,-4.05,79.4,1.184,-2.7,-5.34,75.4,0.882,
-9.16,-8.62,81.6,1.354,-2.57,-3.42,79.4,1.044,-0.67,-4.05,79.4,1.186,-2.69,-5.32,75.3,0.883,
-9.19,-8.62,81.6,1.353,-2.58,-3.42,79.4,1.043,-0.68,-4.05,79.5,1.187,-2.69,-5.3,75.3,0.885,
-9.18,-8.62,81.6,1.353,-2.59,-3.42,79.4,1.044,-0.7,-4.05,79.4,1.185,-2.68,-5.3,75.3,0.885,
-9.11,-8.59,81.6,1.354,-2.55,-3.41,79.4,1.045,-0.66,-4.05,79.5,1.186,-2.65,-5.29,75.3,0.887,
-9.09,-8.58,81.6,1.355,-2.54,-3.4,79.4,1.044,-0.64,-4.05,79.6,1.187,-2.63,-5.3,75.6,0.888,
-9.09,-8.57,81.6,1.354,-2.53,-3.39,79.4,1.045,-0.65,-4.04,79.4,1.187,-2.63,-5.29,75.5,0.888,
-9.02,-8.56,81.6,1.356,-2.48,-3.38,79.4,1.047,-0.6,-4.04,79.6,1.188,-2.6,-5.29,75.5,0.889,
-8.97,-8.52,81.6,1.357,-2.46,-3.36,79.4,1.047,-0.59,-4.03,79.5,1.188,-2.62,-5.26,75.3,0.889,
-8.91,-8.5,81.6,1.358,-2.43,-3.35,79.4,1.047,-0.58,-4.02,79.5,1.188,-2.6,-5.26,75.4,0.889,
-8.89,-8.51,81.7,1.36,-2.41,-3.35,79.5,1.049,-0.52,-4.03,79.7,1.191,-2.63,-5.26,75.2,0.885,
-8.95,-8.52,81.6,1.361,-2.43,-3.36,79.5,1.047,-0.55,-4.02,79.6,1.19,-2.59,-5.27,75.5,0.888,
-9.02,-8.54,81.6,1.358,-2.47,-3.36,79.4,1.046,-0.57,-4.03,79.6,1.188,-2.61,-5.26,75.4,0.889,
-8.99,-8.53,81.6,1.359,-2.44,-3.37,79.5,1.046,-0.53,-4.03,79.6,1.191,-2.55,-5.27,75.5,0.889,
-8.98,-8.53,81.6,1.359,-2.44,-3.37,79.5,1.046,-0.53,-4.04,79.6,1.19,-2.56,-5.27,75.6,0.889,
-9.02,-8.54,81.6,1.358,-2.46,-3.37,79.5,1.045,-0.54,-4.04,79.7,1.189,-2.57,-5.28,75.6,0.888,
-9,-8.55,81.6,1.359,-2.44,-3.37,79.5,1.046,-0.51,-4.05,79.7,1.19,-2.57,-5.27,75.5,0.887,
-8.98,-8.53,81.6,1.359,-2.43,-3.37,79.5,1.045,-0.51,-4.04,79.7,1.191,-2.54,-5.26,75.6,0.89,
-8.9,-8.5,81.6,1.361,-2.4,-3.35,79.5,1.047,-0.5,-4.04,79.7,1.191,-2.56,-5.23,75.4,0.891,
-8.9,-8.5,81.6,1.359,-2.39,-3.35,79.6,1.048,-0.47,-4.03,79.7,1.193,-2.52,-5.26,75.6,0.89,
-8.88,-8.49,81.6,1.362,-2.37,-3.35,79.6,1.048,-0.45,-4.03,79.7,1.193,-2.53,-5.23,75.5,0.891,
-8.89,-8.48,81.6,1.36,-2.38,-3.34,79.5,1.047,-0.45,-4.03,79.8,1.192,-2.49,-5.23,75.7,0.892,
-9.01,-8.52,81.6,1.36,-2.43,-3.36,79.5,1.046,-0.49,-4.05,79.8,1.193,-2.57,-5.23,75.5,0.888,
-9.03,-8.54,81.6,1.359,-2.44,-3.37,79.5,1.046,-0.49,-4.05,79.8,1.192,-2.5,-5.24,75.7,0.892,
-9.07,-8.55,81.6,1.359,-2.46,-3.37,79.5,1.045,-0.5,-4.06,79.8,1.191,-2.51,-5.24,75.7,0.889,
-9.06,-8.56,81.6,1.361,-2.5,-3.39,79.5,1.045,-0.52,-4.08,79.8,1.191,-2.53,-5.24,75.6,0.891,
-8.96,-8.52,81.6,1.361,-2.46,-3.38,79.5,1.045,-0.48,-4.08,79.9,1.192,-2.49,-5.25,75.8,0.892,
-8.91,-8.51,81.6,1.362,-2.43,-3.37,79.5,1.047,-0.47,-4.07,79.8,1.192,-2.51,-5.22,75.6,0.892,
-8.94,-8.51,81.6,1.363,-2.44,-3.37,79.5,1.046,-0.46,-4.07,79.9,1.192,-2.5,-5.23,75.7,0.891,
-8.99,-8.53,81.6,1.364,-2.46,-3.38,79.5,1.046,-0.47,-4.08,79.8,1.192,-2.49,-5.25,75.8,0.891,
-8.99,-8.54,81.6,1.364,-2.46,-3.38,79.5,1.045,-0.48,-4.08,79.8,1.191,-2.5,-5.24,75.7,0.892,
-9.03,-8.55,81.6,1.363,-2.48,-3.39,79.5,1.044,-0.49,-4.09,79.9,1.191,-2.49,-5.26,76,0.892,
-9.03,-8.55,81.6,1.363,-2.47,-3.39,79.5,1.044,-0.49,-4.1,79.9,1.191,-2.5,-5.24,75.7,0.892,
-9.01,-8.55,81.6,1.363,-2.45,-3.38,79.5,1.045,-0.46,-4.1,79.9,1.192,-2.5,-5.24,75.8,0.891,
-9.03,-8.56,81.6,1.363,-2.47,-3.39,79.5,1.043,-0.47,-4.1,79.9,1.192,-2.47,-5.26,76,0.894,
-9.05,-8.56,81.6,1.363,-2.48,-3.39,79.5,1.044,-0.48,-4.11,79.9,1.191,-2.48,-5.24,75.9,0.894,
-9.04,-8.57,81.6,1.363,-2.47,-3.39,79.5,1.044,-0.46,-4.1,79.9,1.192,-2.46,-5.24,75.9,0.893,
-9.03,-8.56,81.6,1.364,-2.47,-3.39,79.5,1.043,-0.47,-4.09,79.9,1.193,-2.48,-5.25,75.9,0.892,
-8.96,-8.53,81.6,1.364,-2.44,-3.37,79.5,1.044,-0.45,-4.1,79.9,1.193,-2.45,-5.21,75.8,0.896,
-8.86,-8.5,81.7,1.367,-2.37,-3.35,79.5,1.047,-0.4,-4.09,80,1.194,-2.45,-5.23,75.8,0.892,
-8.89,-8.51,81.6,1.366,-2.39,-3.36,79.5,1.046,-0.4,-4.08,80,1.195,-2.42,-5.2,75.9,0.895,
-8.84,-8.49,81.6,1.366,-2.38,-3.35,79.5,1.046,-0.4,-4.08,80,1.195,-2.4,-5.22,76,0.896,
-8.68,-8.43,81.7,1.37,-2.3,-3.32,79.5,1.047,-0.35,-4.07,80,1.197,-2.34,-5.2,76.1,0.899,
-8.69,-8.43,81.7,1.37,-2.3,-3.32,79.5,1.046,-0.34,-4.06,79.9,1.196,-2.39,-5.2,75.9,0.895,
-8.84,-8.48,81.6,1.369,-2.36,-3.33,79.5,1.045,-0.37,-4.06,80,1.196,-2.43,-5.16,75.7,0.895,
-8.92,-8.53,81.6,1.368,-2.41,-3.37,79.6,1.044,-0.4,-4.07,79.9,1.195,-2.4,-5.18,75.8,0.896,
-8.98,-8.55,81.7,1.367,-2.45,-3.38,79.5,1.041,-0.44,-4.08,79.9,1.194,-2.43,-5.17,75.7,0.897,
-8.99,-8.54,81.6,1.365,-2.48,-3.38,79.5,1.04,-0.47,-4.09,79.9,1.193,-2.45,-5.17,75.6,0.896,
-8.96,-8.53,81.6,1.366,-2.46,-3.38,79.5,1.041,-0.45,-4.08,79.9,1.194,-2.44,-5.19,75.7,0.894,
-8.98,-8.54,81.6,1.365,-2.46,-3.37,79.5,1.04,-0.47,-4.08,79.8,1.193,-2.43,-5.19,75.8,0.896,
-9.04,-8.55,81.6,1.364,-2.49,-3.38,79.4,1.04,-0.5,-4.09,79.8,1.192,-2.48,-5.17,75.6,0.895,
-9.04,-8.55,81.6,1.362,-2.49,-3.37,79.4,1.039,-0.5,-4.08,79.8,1.193,-2.44,-5.19,75.8,0.897,
-9.06,-8.56,81.6,1.361,-2.49,-3.38,79.4,1.039,-0.49,-4.09,79.9,1.193,-2.46,-5.2,75.8,0.895,
-9.1,-8.56,81.5,1.359,-2.51,-3.38,79.4,1.039,-0.53,-4.08,79.8,1.192,-2.45,-5.2,75.9,0.897,
-9.04,-8.56,81.6,1.36,-2.49,-3.37,79.4,1.039,-0.5,-4.08,79.8,1.193,-2.46,-5.17,75.6,0.895,
-9.05,-8.55,81.6,1.36,-2.49,-3.37,79.4,1.039,-0.51,-4.08,79.8,1.192,-2.45,-5.16,75.7,0.897,
-9.1,-8.56,81.6,1.358,-2.53,-3.38,79.4,1.039,-0.52,-4.08,79.8,1.194,-2.48,-5.19,75.7,0.893,
-9.09,-8.56,81.5,1.358,-2.53,-3.38,79.4,1.039,-0.52,-4.07,79.8,1.193,-2.47,-5.16,75.6,0.894,
-9.09,-8.56,81.6,1.359,-2.53,-3.38,79.4,1.04,-0.52,-4.07,79.8,1.193,-2.44,-5.16,75.7,0.897,
-9.16,-8.58,81.5,1.357,-2.55,-3.38,79.3,1.038,-0.55,-4.07,79.8,1.193,-2.45,-5.17,75.8,0.897,
-9.2,-8.59,81.5,1.356,-2.57,-3.39,79.4,1.038,-0.57,-4.07,79.8,1.192,-2.49,-5.14,75.5,0.895,
-9.17,-8.58,81.5,1.356,-2.56,-3.38,79.3,1.039,-0.55,-4.08,79.8,1.193,-2.5,-5.13,75.3,0.895,
-9.19,-8.57,81.5,1.356,-2.57,-3.38,79.3,1.038,-0.56,-4.06,79.8,1.194,-2.46,-5.16,75.7,0.896,
-9.17,-8.56,81.5,1.356,-2.57,-3.37,79.3,1.038,-0.58,-4.06,79.7,1.192,-2.45,-5.14,75.6,0.898,
-9.1,-8.54,81.5,1.357,-2.53,-3.36,79.3,1.039,-0.53,-4.06,79.8,1.194,-2.4,-5.15,75.8,0.899,
-9.08,-8.53,81.5,1.358,-2.51,-3.35,79.3,1.04,-0.54,-4.06,79.7,1.192,-2.42,-5.15,75.8,0.897,
-9.15,-8.55,81.5,1.357,-2.55,-3.36,79.3,1.039,-0.56,-4.06,79.8,1.193,-2.46,-5.15,75.7,0.895,
-9.2,-8.57,81.5,1.357,-2.57,-3.37,79.3,1.038,-0.58,-4.07,79.7,1.191,-2.48,-5.17,75.8,0.893,
-9.2,-8.58,81.5,1.358,-2.57,-3.37,79.3,1.038,-0.58,-4.06,79.8,1.192,-2.45,-5.18,75.9,0.895,
-9.27,-8.59,81.5,1.356,-2.6,-3.38,79.3,1.037,-0.62,-4.06,79.7,1.191,-2.5,-5.15,75.6,0.896,
-9.33,-8.61,81.5,1.355,-2.63,-3.38,79.3,1.036,-0.66,-4.07,79.6,1.189,-2.48,-5.18,75.9,0.897,
-9.31,-8.61,81.5,1.355,-2.62,-3.39,79.4,1.036,-0.63,-4.07,79.7,1.191,-2.47,-5.18,75.8,0.896,
-9.3,-8.6,81.5,1.355,-2.62,-3.38,79.3,1.036,-0.64,-4.07,79.7,1.191,-2.47,-5.17,75.8,0.898,
-9.28,-8.58,81.5,1.355,-2.62,-3.37,79.3,1.037,-0.64,-4.06,79.7,1.191,-2.49,-5.15,75.7,0.897,
-9.21,-8.56,81.5,1.356,-2.58,-3.36,79.3,1.037,-0.61,-4.05,79.7,1.193,-2.47,-5.15,75.7,0.896,
-9.16,-8.54,81.5,1.358,-2.54,-3.35,79.3,1.038,-0.6,-4.03,79.6,1.192,-2.43,-5.15,75.8,0.898,
-9.23,-8.56,81.5,1.358,-2.56,-3.35,79.3,1.038,-0.62,-4.03,79.6,1.192,-2.47,-5.15,75.7,0.895,
-9.28,-8.58,81.5,1.357,-2.58,-3.36,79.3,1.037,-0.61,-4.04,79.7,1.192,-2.43,-5.15,75.9,0.899,
-9.3,-8.59,81.5,1.357,-2.58,-3.37,79.3,1.038,-0.61,-4.05,79.7,1.192,-2.47,-5.14,75.7,0.896,
-9.33,-8.6,81.5,1.356,-2.6,-3.37,79.3,1.037,-0.63,-4.04,79.6,1.192,-2.46,-5.15,75.8,0.897,
-9.33,-8.6,81.4,1.356,-2.61,-3.38,79.3,1.037,-0.63,-4.04,79.7,1.191,-2.44,-5.14,75.8,0.9,
-9.28,-8.59,81.5,1.357,-2.56,-3.37,79.4,1.038,-0.6,-4.03,79.7,1.194,-2.41,-5.15,75.9,0.899,
-9.3,-8.59,81.5,1.357,-2.57,-3.37,79.4,1.038,-0.62,-4.02,79.6,1.193,-2.44,-5.13,75.7,0.898,
-9.33,-8.6,81.5,1.355,-2.58,-3.37,79.4,1.038,-0.63,-4.02,79.6,1.193,-2.42,-5.13,75.8,0.9,
-9.3,-8.6,81.5,1.356,-2.55,-3.37,79.3,1.038,-0.6,-4.02,79.6,1.192,-2.4,-5.13,75.9,0.9,
-9.33,-8.6,81.5,1.355,-2.56,-3.37,79.4,1.038,-0.62,-4.01,79.5,1.193,-2.39,-5.13,75.8,0.901,
-9.32,-8.58,81.5,1.355,-2.57,-3.37,79.4,1.037,-0.62,-4.01,79.5,1.192,-2.36,-5.13,76,0.903,
-9.2,-8.53,81.5,1.355,-2.5,-3.34,79.4,1.038,-0.55,-3.98,79.6,1.195,-2.31,-5.11,76,0.902,
-9.18,-8.53,81.5,1.359,-2.49,-3.33,79.3,1.04,-0.55,-3.98,79.5,1.196,-2.32,-5.09,75.8,0.901,
-9.24,-8.57,81.5,1.361,-2.52,-3.35,79.3,1.039,-0.57,-3.98,79.5,1.196,-2.32,-5.08,75.8,0.904,
-9.21,-8.56,81.5,1.362,-2.51,-3.35,79.3,1.039,-0.56,-3.98,79.5,1.195,-2.34,-5.09,75.7,0.9,
-9.17,-8.55,81.5,1.364,-2.49,-3.34,79.3,1.04,-0.54,-3.96,79.5,1.196,-2.29,-5.07,75.8,0.904,
-9.19,-8.55,81.5,1.364,-2.49,-3.34,79.4,1.039,-0.56,-3.97,79.5,1.194,-2.3,-5.08,75.9,0.904,
-9.19,-8.55,81.5,1.365,-2.49,-3.34,79.3,1.038,-0.56,-3.96,79.4,1.195,-2.3,-5.08,75.8,0.903,
-9.2,-8.57,81.5,1.364,-2.49,-3.35,79.3,1.039,-0.55,-3.95,79.4,1.195,-2.28,-5.06,75.8,0.905,
-9.24,-8.58,81.5,1.364,-2.51,-3.35,79.3,1.039,-0.59,-3.96,79.3,1.193,-2.3,-5.08,75.9,0.904,
-9.24,-8.57,81.5,1.364,-2.52,-3.35,79.3,1.037,-0.61,-3.95,79.3,1.194,-2.32,-5.07,75.8,0.904,
-9.16,-8.55,81.5,1.364,-2.47,-3.34,79.3,1.038,-0.58,-3.94,79.3,1.194,-2.26,-5.06,75.9,0.905,
-9.12,-8.52,81.5,1.365,-2.45,-3.33,79.4,1.038,-0.58,-3.92,79.2,1.193,-2.29,-5.04,75.7,0.903,
-9.1,-8.51,81.5,1.366,-2.45,-3.32,79.3,1.038,-0.57,-3.92,79.3,1.194,-2.25,-5.04,75.8,0.907,
-9.05,-8.5,81.5,1.367,-2.41,-3.32,79.3,1.039,-0.54,-3.91,79.2,1.195,-2.25,-5.02,75.6,0.905,
-9.09,-8.51,81.5,1.367,-2.41,-3.32,79.3,1.038,-0.56,-3.9,79.1,1.194,-2.27,-5.04,75.7,0.904,
-9.13,-8.53,81.5,1.368,-2.44,-3.32,79.3,1.037,-0.59,-3.9,79.2,1.194,-2.27,-5.06,75.9,0.904,
-9.09,-8.53,81.5,1.367,-2.41,-3.33,79.3,1.038,-0.58,-3.9,79.1,1.194,-2.25,-5.05,75.8,0.904,
-9.08,-8.52,81.5,1.367,-2.4,-3.32,79.3,1.037,-0.59,-3.9,79.1,1.193,-2.28,-5.03,75.6,0.904,
-9.08,-8.52,81.5,1.365,-2.4,-3.32,79.3,1.037,-0.62,-3.88,79,1.193,-2.27,-5.03,75.7,0.905,
-9.03,-8.52,81.6,1.368,-2.36,-3.31,79.3,1.038,-0.59,-3.88,79,1.194,-2.28,-5.02,75.5,0.904,
-9,-8.51,81.5,1.367,-2.36,-3.31,79.3,1.038,-0.6,-3.87,78.9,1.194,-2.25,-5.03,75.8,0.906,
-9.06,-8.53,81.5,1.366,-2.38,-3.32,79.3,1.037,-0.65,-3.87,78.9,1.191,-2.27,-5.03,75.8,0.906,
-9.03,-8.53,81.5,1.366,-2.36,-3.32,79.3,1.037,-0.66,-3.85,78.7,1.19,-2.27,-5.01,75.7,0.906,
-9.03,-8.53,81.6,1.365,-2.36,-3.32,79.3,1.037,-0.65,-3.86,78.8,1.191,-2.29,-5.01,75.4,0.904,
-9.06,-8.53,81.5,1.365,-2.39,-3.32,79.3,1.035,-0.67,-3.87,78.9,1.19,-2.3,-5.02,75.6,0.904,
-9.03,-8.52,81.5,1.365,-2.38,-3.32,79.3,1.035,-0.65,-3.88,78.9,1.191,-2.24,-5.05,76,0.906,
-8.95,-8.49,81.5,1.366,-2.33,-3.31,79.3,1.036,-0.61,-3.87,78.9,1.192,-2.23,-5.01,75.8,0.908,
-8.96,-8.49,81.6,1.367,-2.33,-3.3,79.3,1.036,-0.58,-3.87,79,1.194,-2.21,-5.04,76.1,0.908,
-9.02,-8.51,81.5,1.365,-2.37,-3.3,79.2,1.034,-0.59,-3.87,79.1,1.195,-2.22,-5.02,76,0.909,
-9,-8.52,81.5,1.367,-2.35,-3.31,79.3,1.035,-0.55,-3.88,79.1,1.197,-2.24,-5,75.8,0.908,
-9.04,-8.53,81.5,1.366,-2.37,-3.31,79.3,1.034,-0.53,-3.89,79.2,1.199,-2.28,-5.01,75.7,0.906,
-9.12,-8.55,81.5,1.365,-2.43,-3.31,79.2,1.033,-0.55,-3.9,79.2,1.199,-2.3,-5.02,75.8,0.905,
-9.11,-8.55,81.5,1.363,-2.46,-3.31,79.1,1.032,-0.52,-3.91,79.4,1.201,-2.29,-5.03,75.8,0.904,
-9.09,-8.55,81.5,1.364,-2.45,-3.3,79.1,1.032,-0.5,-3.92,79.5,1.202,-2.25,-5.01,75.8,0.91,
-9.13,-8.56,81.5,1.363,-2.48,-3.29,79,1.031,-0.47,-3.93,79.6,1.204,-2.27,-5.01,75.8,0.909,
-9.15,-8.56,81.5,1.362,-2.51,-3.28,78.9,1.03,-0.45,-3.94,79.7,1.206,-2.3,-5.02,75.7,0.906,
-9.08,-8.54,81.5,1.363,-2.48,-3.27,78.9,1.031,-0.39,-3.94,79.8,1.209,-2.27,-5.01,75.8,0.906,
-9.09,-8.55,81.5,1.363,-2.49,-3.26,78.9,1.031,-0.36,-3.96,80,1.211,-2.28,-4.99,75.6,0.908,
-9.14,-8.56,81.5,1.361,-2.53,-3.25,78.8,1.03,-0.34,-3.96,80.1,1.213,-2.25,-5.04,76.1,0.909,
-9.13,-8.55,81.5,1.361,-2.53,-3.24,78.7,1.03,-0.29,-3.97,80.2,1.215,-2.26,-5.01,75.9,0.909,
-9.09,-8.55,81.5,1.363,-2.53,-3.23,78.7,1.03,-0.24,-3.98,80.4,1.218,-2.26,-5.02,75.9,0.908,
